iteration,time,throughput (img/s),loss,top1-accuracy,top5-accuracy
1,0,413.8,7.255,0.000,0.008
10,0,393.4,7.255,0.000,0.000
20,0,390.2,7.255,0.000,0.004
30,0,387.6,7.255,0.000,0.000
40,0,390.4,7.255,0.000,0.000
50,0,391.6,7.255,0.004,0.004
60,0,391.0,7.255,0.000,0.004
70,0,391.2,7.255,0.000,0.000
80,0,391.7,7.255,0.000,0.004
90,0,391.3,7.255,0.000,0.008
100,0,390.1,7.255,0.004,0.016
110,0,389.7,7.255,0.000,0.004
120,0,388.7,7.255,0.000,0.004
130,0,389.2,7.255,0.000,0.004
140,0,389.4,7.255,0.000,0.008
150,0,389.2,7.255,0.000,0.004
160,0,388.7,7.255,0.000,0.004
170,0,388.8,7.255,0.000,0.000
180,0,389.1,7.255,0.000,0.004
190,0,387.5,7.255,0.000,0.004
200,0,387.5,7.255,0.000,0.008
210,0,387.2,7.255,0.000,0.004
220,0,387.1,7.255,0.004,0.012
230,0,386.5,7.255,0.004,0.008
240,0,385.7,7.255,0.000,0.004
250,0,384.9,7.255,0.000,0.000
260,0,384.3,7.255,0.000,0.008
270,0,384.3,7.255,0.004,0.008
280,0,383.4,7.255,0.000,0.008
290,0,383.1,7.255,0.000,0.000
300,0,382.7,7.255,0.000,0.004
310,0,382.5,7.255,0.000,0.004
320,0,381.9,7.255,0.000,0.000
330,0,381.3,7.255,0.000,0.004
340,0,380.8,7.255,0.000,0.004
350,0,380.3,7.255,0.000,0.004
360,0,379.5,7.255,0.000,0.004
370,0,379.3,7.255,0.000,0.000
380,0,378.9,7.255,0.000,0.004
390,0,378.3,7.255,0.000,0.000
400,0,378.1,7.255,0.004,0.012
410,0,377.8,7.255,0.000,0.012
420,0,377.5,7.255,0.004,0.004
430,0,377.3,7.255,0.004,0.012
440,0,377.1,7.255,0.000,0.004
450,0,376.8,7.255,0.000,0.004
460,0,376.6,7.255,0.000,0.004
470,0,376.2,7.255,0.004,0.004
480,0,375.9,7.255,0.004,0.004
490,0,375.6,7.255,0.000,0.004
500,0,375.4,7.255,0.000,0.012
510,0,375.3,7.255,0.000,0.004
520,0,375.1,7.255,0.004,0.012
530,0,374.9,7.255,0.004,0.012
540,0,374.6,7.255,0.004,0.004
550,0,374.5,7.255,0.000,0.000
560,0,374.2,7.255,0.000,0.004
570,0,374.0,7.255,0.000,0.000
580,452,373.7,7.255,0.000,0.000
590,452,373.5,7.255,0.000,0.004
600,452,373.3,7.255,0.000,0.004
610,452,372.9,7.255,0.000,0.004
620,452,372.8,7.255,0.004,0.012
630,452,372.7,7.255,0.000,0.004
640,452,372.7,7.255,0.000,0.000
650,452,372.5,7.255,0.000,0.008
660,452,372.3,7.255,0.000,0.000
670,452,372.2,7.255,0.004,0.004
680,452,372.1,7.255,0.004,0.004
690,452,372.0,7.255,0.000,0.004
700,452,371.9,7.255,0.000,0.012
710,452,371.7,7.255,0.004,0.004
720,452,371.6,7.255,0.000,0.000
730,452,371.6,7.255,0.000,0.000
740,452,371.6,7.255,0.000,0.008
750,453,371.4,7.255,0.000,0.004
760,453,371.4,7.255,0.004,0.008
770,453,371.3,7.255,0.000,0.016
780,453,371.3,7.255,0.004,0.008
790,453,371.2,7.255,0.000,0.000
800,453,371.2,7.255,0.000,0.004
810,453,371.1,7.255,0.000,0.008
820,453,371.1,7.255,0.000,0.004
830,453,371.0,7.255,0.000,0.008
840,453,370.9,7.255,0.000,0.004
850,453,370.8,7.255,0.000,0.004
860,453,370.7,7.255,0.000,0.000
870,453,370.7,7.255,0.000,0.004
880,453,370.6,7.255,0.000,0.004
890,453,370.5,7.255,0.000,0.004
900,453,370.4,7.255,0.000,0.004
910,453,370.2,7.255,0.000,0.004
920,453,370.2,7.255,0.004,0.012
930,453,370.1,7.255,0.000,0.008
940,453,370.1,7.255,0.000,0.000
950,453,370.0,7.255,0.004,0.008
960,453,369.8,7.255,0.000,0.000
970,453,369.8,7.255,0.000,0.008
980,453,369.7,7.255,0.000,0.000
990,453,369.7,7.255,0.004,0.008
1000,453,369.6,7.255,0.000,0.016
1010,453,369.5,7.255,0.000,0.000
1020,453,369.6,7.255,0.008,0.012
1030,453,369.5,7.255,0.000,0.000
1040,453,369.4,7.255,0.000,0.008
1050,453,369.4,7.255,0.000,0.000
1060,453,369.3,7.255,0.000,0.004
1070,453,369.3,7.255,0.000,0.000
1080,453,369.2,7.255,0.004,0.008
1090,453,369.1,7.255,0.004,0.008
1100,453,369.0,7.255,0.000,0.000
1110,453,368.8,7.255,0.000,0.004
1120,453,368.8,7.255,0.000,0.008
1130,453,368.7,7.255,0.004,0.004
1140,453,368.6,7.255,0.000,0.000
1150,453,368.5,7.255,0.000,0.004
1160,453,368.4,7.255,0.000,0.000
1170,453,368.4,7.255,0.004,0.016
1180,453,368.4,7.255,0.000,0.004
1190,453,368.4,7.255,0.000,0.000
1200,453,368.3,7.255,0.000,0.016
1210,453,367.175,7.255,0.000,0.004
1220,901,368.0,7.255,0.000,0.016
1230,901,367.9,7.255,0.000,0.004
1240,901,367.9,7.255,0.004,0.004
1250,901,367.8,7.255,0.000,0.004
1260,901,367.7,7.255,0.000,0.000
1270,901,367.7,7.255,0.004,0.008
1280,901,367.5,7.255,0.004,0.012
1290,901,367.5,7.255,0.000,0.012
1300,901,367.4,7.255,0.004,0.004
1310,901,367.4,7.255,0.000,0.000
1320,901,367.3,7.255,0.000,0.004
1330,901,367.1,7.255,0.004,0.004
1340,901,367.0,7.255,0.004,0.008
1350,901,367.0,7.255,0.000,0.008
1360,901,367.0,7.255,0.000,0.004
1370,901,367.0,7.255,0.000,0.008
1380,901,366.9,7.255,0.000,0.008
1390,901,366.9,7.255,0.000,0.004
1400,901,366.8,7.255,0.004,0.012
1410,901,366.8,7.255,0.000,0.004
1420,901,366.8,7.255,0.004,0.004
1430,901,366.5,7.255,0.000,0.004
1440,901,366.4,7.255,0.000,0.008
1450,901,366.4,7.255,0.000,0.004
1460,901,366.4,7.255,0.000,0.004
1470,901,366.3,7.255,0.000,0.000
1480,901,366.3,7.255,0.004,0.004
1490,901,366.3,7.255,0.004,0.004
1500,901,366.1,7.255,0.004,0.008
1510,901,366.0,7.255,0.000,0.000
1520,901,366.0,7.255,0.000,0.016
1530,901,366.0,7.255,0.000,0.000
1540,901,366.0,7.255,0.000,0.004
1550,901,366.0,7.255,0.004,0.012
1560,901,366.1,7.255,0.000,0.008
1570,901,366.0,7.255,0.000,0.008
1580,901,366.0,7.255,0.000,0.000
1590,901,366.0,7.255,0.004,0.004
1600,901,366.0,7.255,0.000,0.000
1610,901,366.0,7.255,0.000,0.000
1620,901,365.9,7.255,0.000,0.004
1630,901,365.9,7.255,0.000,0.012
1640,901,365.8,7.255,0.000,0.004
1650,901,365.7,7.255,0.004,0.004
1660,901,365.7,7.255,0.000,0.004
1670,901,365.7,7.255,0.000,0.000
1680,901,365.7,7.255,0.000,0.004
1690,901,365.7,7.255,0.004,0.008
1700,901,365.7,7.255,0.000,0.004
1710,901,365.7,7.255,0.000,0.000
1720,901,365.6,7.255,0.008,0.012
1730,901,365.6,7.255,0.000,0.000
1740,901,365.6,7.255,0.004,0.008
1750,901,365.5,7.255,0.000,0.008
1760,901,365.5,7.255,0.000,0.000
1770,901,365.4,7.255,0.004,0.004
1780,901,365.4,7.255,0.000,0.000
1790,901,365.4,7.255,0.004,0.008
1800,901,365.0,7.255,0.000,0.004
1810,901,365.0,7.255,0.000,0.004
1820,901,365.0,7.255,0.008,0.016
1830,901,365.0,7.255,0.000,0.004
1840,901,365.0239,7.255,0.000,0.000
1850,1345,365.0,7.255,0.000,0.000
1860,1345,365.0,7.255,0.000,0.004
1870,1345,365.0,7.255,0.000,0.000
1880,1345,364.9,7.255,0.000,0.000
1890,1345,365.0,7.255,0.000,0.008
1900,1345,365.0,7.255,0.000,0.000
1910,1345,365.0,7.255,0.000,0.000
1920,1345,365.0,7.255,0.000,0.004
1930,1345,365.1,7.255,0.008,0.012
1940,1345,365.0,7.255,0.004,0.004
1950,1345,365.0,7.255,0.000,0.004
1960,1345,365.0,7.255,0.004,0.004
1970,1345,365.0,7.255,0.000,0.000
1980,1345,365.0,7.255,0.004,0.012
1990,1345,365.0,7.255,0.000,0.012
2000,1345,365.0,7.255,0.000,0.004
2010,1345,364.9,7.255,0.004,0.012
2020,1345,364.9,7.255,0.000,0.004
2030,1345,364.9,7.255,0.000,0.008
2040,1345,364.9,7.255,0.004,0.004
2050,1345,364.9,7.255,0.000,0.000
2060,1345,364.9,7.255,0.000,0.008
2070,1345,364.9,7.255,0.000,0.004
2080,1345,364.9,7.255,0.000,0.012
2090,1345,364.6,7.255,0.000,0.004
2100,1345,364.6,7.255,0.000,0.008
2110,1345,364.6,7.255,0.000,0.008
2120,1345,364.6,7.255,0.000,0.008
2130,1345,364.6,7.255,0.000,0.000
2140,1345,364.5,7.255,0.000,0.000
2150,1345,364.5,7.255,0.000,0.004
2160,1345,364.6,7.255,0.000,0.008
2170,1345,364.6,7.255,0.000,0.000
2180,1345,364.6,7.255,0.000,0.008
2190,1345,364.6,7.255,0.008,0.008
2200,1345,364.5,7.255,0.000,0.004
2210,1345,364.5,7.255,0.004,0.004
2220,1345,364.5,7.255,0.000,0.004
2230,1345,364.5,7.255,0.004,0.008
2240,1346,364.5,7.255,0.000,0.000
2250,1346,364.5,7.255,0.000,0.000
2260,1346,364.5,7.255,0.000,0.016
2270,1346,364.5,7.255,0.000,0.008
2280,1346,364.5,7.255,0.000,0.000
2290,1346,364.5,7.255,0.000,0.000
2300,1346,364.5,7.255,0.004,0.004
2310,1346,364.5,7.255,0.000,0.004
2320,1346,364.5,7.255,0.000,0.004
2330,1346,364.5,7.255,0.000,0.000
2340,1346,364.4,7.255,0.000,0.008
2350,1346,364.4,7.255,0.004,0.012
2360,1346,364.4,7.255,0.000,0.000
2370,1346,364.4,7.255,0.000,0.008
2380,1346,364.4,7.255,0.000,0.004
2390,1346,364.4,7.255,0.004,0.012
2400,1346,364.4,7.255,0.000,0.000
2410,1346,364.4,7.255,0.000,0.000
2420,1346,364.4,7.255,0.008,0.016
2430,1346,364.4,7.255,0.000,0.004
2440,1346,364.4,7.255,0.000,0.008
2450,1346,364.4,7.255,0.004,0.004
2460,1346,364.4,7.255,0.004,0.012
2470,1346,364.3,7.255,0.004,0.004
2480,1791,364.4,7.255,0.000,0.000
2490,1791,364.3,7.255,0.004,0.004
2500,1791,364.3,7.255,0.000,0.000
2510,1791,364.4,7.255,0.000,0.004
2520,1791,364.3,7.255,0.000,0.004
2530,1791,364.3,7.255,0.000,0.000
2540,1791,364.4,7.255,0.000,0.000
2550,1791,364.4,7.255,0.000,0.000
2560,1791,364.3,7.255,0.000,0.000
2570,1791,364.3,7.255,0.000,0.000
2580,1791,364.3,7.255,0.000,0.008
2590,1791,364.3,7.255,0.004,0.016
2600,1791,364.3,7.255,0.000,0.012
2610,1791,364.3,7.255,0.000,0.008
2620,1791,364.3,7.255,0.000,0.004
2630,1791,364.2,7.255,0.000,0.004
2640,1791,364.2,7.255,0.000,0.000
2650,1791,364.2,7.255,0.000,0.004
2660,1791,364.3,7.255,0.000,0.000
2670,1791,364.3,7.254,0.004,0.012
2680,1791,364.2,7.255,0.004,0.008
2690,1791,364.2,7.255,0.000,0.004
2700,1791,364.3,7.254,0.000,0.004
2710,1791,364.3,7.255,0.000,0.000
2720,1791,364.2,7.255,0.000,0.008
2730,1791,364.2,7.255,0.000,0.008
2740,1791,364.2,7.255,0.004,0.008
2750,1791,364.3,7.255,0.000,0.004
2760,1791,364.2,7.255,0.000,0.008
2770,1791,364.2,7.255,0.000,0.004
2780,1791,364.2,7.255,0.000,0.004
2790,1791,364.2,7.254,0.000,0.004
2800,1791,364.2,7.255,0.004,0.020
2810,1791,364.2,7.255,0.000,0.004
2820,1791,364.1,7.255,0.000,0.000
2830,1791,364.1,7.255,0.000,0.000
2840,1791,364.1,7.255,0.000,0.000
2850,1791,364.1,7.255,0.008,0.012
2860,1791,364.1,7.255,0.000,0.000
2870,1791,364.1,7.254,0.000,0.004
2880,1791,364.1,7.255,0.000,0.000
2890,1791,364.1,7.254,0.000,0.016
2900,1791,364.1,7.255,0.000,0.008
2910,1791,364.1,7.255,0.004,0.008
2920,1791,364.1,7.254,0.000,0.004
2930,1791,364.1,7.255,0.000,0.008
2940,1791,364.1,7.255,0.000,0.000
2950,1791,364.0,7.255,0.000,0.000
2960,1791,364.0,7.255,0.000,0.008
2970,1791,364.0,7.255,0.000,0.004
2980,1791,364.0,7.255,0.000,0.008
2990,1791,364.0,7.255,0.000,0.000
3000,1791,363.9,7.255,0.004,0.004
3010,1791,363.9,7.255,0.000,0.004
3020,1791,363.9,7.255,0.000,0.000
3030,1791,363.9,7.255,0.000,0.004
3040,1791,363.9,7.255,0.000,0.004
3050,1791,363.9,7.255,0.000,0.004
3060,1791,363.9,7.255,0.000,0.012
3070,1791,363.9,7.255,0.000,0.004
3080,1791,363.9,7.255,0.000,0.004
3090,1791,363.9,7.255,0.004,0.008
3100,1791,364.0,7.255,0.000,0.004
3110,2255,363.9,7.255,0.000,0.000
3120,2255,363.9,7.255,0.000,0.008
3130,2255,363.9,7.255,0.000,0.000
3140,2255,363.9,7.255,0.000,0.000
3150,2255,363.9,7.255,0.000,0.004
3160,2255,363.9,7.255,0.000,0.004
3170,2255,363.9,7.255,0.000,0.008
3180,2255,363.9,7.255,0.000,0.004
3190,2255,363.8,7.255,0.000,0.000
3200,2255,363.8,7.255,0.004,0.012
3210,2255,363.9,7.255,0.004,0.012
3220,2255,363.8,7.254,0.000,0.004
3230,2255,363.9,7.255,0.000,0.000
3240,2255,363.8,7.255,0.000,0.004
3250,2255,363.9,7.254,0.000,0.000
3260,2255,363.8,7.255,0.000,0.004
3270,2255,363.8,7.255,0.000,0.004
3280,2255,363.8,7.254,0.000,0.000
3290,2255,363.8,7.254,0.004,0.008
3300,2255,363.8,7.254,0.000,0.000
3310,2255,363.8,7.255,0.004,0.004
3320,2255,363.8,7.255,0.000,0.004
3330,2255,363.8,7.255,0.000,0.004
3340,2255,363.0,7.255,0.000,0.000
3350,2255,362.5,7.254,0.004,0.004
3360,2255,362.4,7.254,0.000,0.000
3370,2255,362.2,7.254,0.004,0.004
3380,2255,362.2,7.255,0.004,0.004
3390,2255,362.2,7.255,0.004,0.012
3400,2255,362.1,7.254,0.000,0.000
3410,2255,362.1,7.255,0.000,0.000
3420,2255,362.1,7.255,0.000,0.004
3430,2255,362.1,7.255,0.000,0.004
3440,2255,362.0,7.255,0.000,0.016
3450,2255,362.0,7.255,0.000,0.004
3460,2255,362.0,7.254,0.004,0.004
3470,2255,361.9,7.255,0.000,0.008
3480,2255,361.9,7.254,0.000,0.004
3490,2255,361.8,7.254,0.004,0.008
3500,2255,361.8,7.255,0.000,0.000
3510,2255,361.8,7.254,0.000,0.008
3520,2255,361.7,7.255,0.000,0.000
3530,2255,361.6,7.255,0.000,0.004
3540,2255,361.5,7.254,0.004,0.012
3550,2255,361.6,7.255,0.000,0.000
3560,2255,361.6,7.255,0.000,0.000
3570,2255,361.4,7.255,0.000,0.000
3580,2255,361.5,7.255,0.000,0.012
3590,2255,361.5,7.254,0.000,0.000
3600,2255,361.5,7.254,0.000,0.008
3610,2255,361.4,7.254,0.000,0.000
3620,2255,361.4,7.254,0.000,0.008
3630,2255,361.3,7.255,0.000,0.004
3640,2255,361.3,7.254,0.000,0.012
3650,2255,361.3,7.255,0.004,0.004
3660,2255,361.3,7.254,0.000,0.000
3670,2255,361.3,7.255,0.004,0.004
3680,2255,361.3,7.255,0.000,0.000
3690,2255,361.2,7.255,0.012,0.016
3700,2255,361.2,7.255,0.000,0.000
3710,2255,361.1,7.255,0.000,0.000
3720,2255,361.0,7.255,0.000,0.004
3730,2255,361.0,7.254,0.000,0.004
3740,2778,351.0,7.255,0.008,0.012
3750,2778,351.1,7.254,0.004,0.008
3760,2778,351.2,7.254,0.000,0.004
3770,2778,351.3,7.255,0.000,0.000
3780,2778,351.4,7.254,0.000,0.004
3790,2778,351.5,7.254,0.000,0.000
3800,2778,351.6,7.254,0.000,0.000
3810,2778,351.7,7.255,0.000,0.000
3820,2778,351.7,7.255,0.000,0.008
3830,2778,351.8,7.254,0.004,0.016
3840,2778,351.9,7.254,0.000,0.000
3850,2778,352.0,7.254,0.004,0.008
3860,2778,352.1,7.255,0.000,0.004
3870,2778,352.1,7.255,0.000,0.004
3880,2778,352.2,7.255,0.000,0.004
3890,2778,352.2,7.254,0.000,0.000
3900,2778,352.3,7.254,0.000,0.000
3910,2778,352.3,7.254,0.004,0.016
3920,2778,352.4,7.254,0.000,0.012
3930,2778,352.4,7.254,0.000,0.000
3940,2778,352.4,7.255,0.000,0.000
3950,2778,352.5,7.255,0.004,0.008
3960,2778,352.5,7.255,0.004,0.008
3970,2778,352.5,7.254,0.000,0.004
3980,2778,352.5,7.254,0.004,0.008
3990,2778,352.5,7.254,0.004,0.004
4000,2778,352.5,7.255,0.000,0.008
4010,2778,352.5,7.254,0.004,0.004
4020,2778,352.5,7.255,0.004,0.004
4030,2778,352.5,7.254,0.004,0.004
4040,2778,352.5,7.255,0.000,0.000
4050,2778,352.5,7.254,0.000,0.008
4060,2778,352.6,7.255,0.000,0.000
4070,2778,352.6,7.255,0.000,0.004
4080,2778,352.6,7.255,0.000,0.000
4090,2778,352.6,7.255,0.008,0.008
4100,2778,352.5,7.254,0.000,0.004
4110,2778,352.5,7.254,0.004,0.012
4120,2778,352.4,7.255,0.000,0.000
4130,2778,352.5,7.254,0.000,0.000
4140,2778,352.5,7.254,0.000,0.008
4150,2778,352.4,7.254,0.000,0.004
4160,2778,352.5,7.254,0.000,0.004
4170,2778,352.5,7.254,0.000,0.000
4180,2778,352.5,7.255,0.000,0.004
4190,2778,352.5,7.254,0.000,0.004
4200,2778,352.5,7.254,0.000,0.000
4210,2778,352.5,7.254,0.004,0.020
4220,2778,352.5,7.254,0.000,0.008
4230,2778,352.5,7.255,0.000,0.000
4240,2778,352.5,7.254,0.000,0.008
4250,2778,352.5,7.254,0.000,0.012
4260,2778,352.5,7.254,0.000,0.004
4270,2778,352.4,7.254,0.000,0.004
4280,2778,352.4,7.254,0.000,0.004
4290,2778,352.4,7.255,0.000,0.000
4300,2778,352.4,7.254,0.000,0.004
4310,2778,352.4,7.254,0.000,0.008
4320,2778,352.4,7.254,0.000,0.008
4330,2778,352.4,7.254,0.000,0.008
4340,2778,352.4,7.254,0.004,0.016
4350,2778,352.4,7.255,0.000,0.000
4370,3245,352.4,7.254,0.004,0.008
4380,3245,352.4,7.254,0.000,0.000
4390,3245,352.4,7.254,0.000,0.000
4400,3245,352.4,7.255,0.000,0.000
4410,3245,352.4,7.254,0.000,0.004
4420,3245,352.4,7.254,0.000,0.004
4430,3245,352.5,7.254,0.000,0.008
4440,3245,352.5,7.254,0.000,0.008
4450,3245,352.5,7.254,0.000,0.008
4460,3245,352.5,7.254,0.000,0.000
4470,3245,352.5,7.255,0.000,0.004
4480,3245,352.5,7.254,0.004,0.008
4490,3245,352.5,7.255,0.004,0.004
4500,3245,352.5,7.254,0.000,0.008
4510,3245,352.6,7.254,0.004,0.008
4520,3245,352.5,7.254,0.000,0.004
4530,3245,352.5,7.254,0.004,0.012
4540,3245,352.5,7.254,0.004,0.004
4550,3245,352.5,7.254,0.000,0.004
4560,3245,352.4,7.254,0.004,0.012
4570,3245,352.5,7.254,0.004,0.008
4580,3245,352.5,7.254,0.000,0.000
4590,3245,352.4,7.254,0.004,0.012
4600,3245,352.5,7.254,0.004,0.012
4610,3245,352.4,7.254,0.004,0.012
4620,3245,352.5,7.254,0.000,0.000
4630,3245,352.4,7.255,0.000,0.004
4640,3245,352.4,7.255,0.000,0.004
4650,3245,352.5,7.254,0.004,0.008
4660,3245,352.5,7.254,0.004,0.004
4670,3245,352.5,7.254,0.000,0.000
4680,3245,352.5,7.254,0.004,0.008
4690,3245,352.4,7.254,0.000,0.004
4700,3245,352.5,7.254,0.000,0.000
4710,3245,352.4,7.254,0.004,0.008
4720,3245,352.5,7.254,0.000,0.004
4730,3245,352.5,7.255,0.000,0.000
4740,3245,352.5,7.254,0.000,0.000
4750,3245,352.5,7.254,0.000,0.004
4760,3245,352.5,7.255,0.000,0.008
4770,3245,352.4,7.254,0.004,0.008
4780,3245,352.5,7.254,0.004,0.008
4790,3245,352.4,7.254,0.000,0.000
4800,3245,352.5,7.254,0.000,0.008
4810,3245,352.4,7.254,0.000,0.000
4820,3245,352.4,7.254,0.000,0.004
4830,3245,352.4,7.254,0.000,0.000
4840,3245,352.4,7.254,0.000,0.004
4850,3245,352.4,7.254,0.000,0.008
4860,3245,352.4,7.254,0.000,0.008
4870,3245,352.4,7.254,0.000,0.008
4880,3245,352.4,7.255,0.000,0.008
4890,3245,352.4,7.254,0.000,0.004
4900,3245,352.3,7.254,0.004,0.004
4910,3245,352.3,7.254,0.000,0.000
4920,3245,352.3,7.254,0.000,0.012
4930,3245,352.3,7.254,0.000,0.000
4940,3245,352.4,7.254,0.000,0.000
4950,3245,352.4,7.254,0.000,0.004
4960,3245,352.4,7.254,0.004,0.004
4970,3245,352.4,7.255,0.000,0.004
4980,3245,352.3,7.254,0.004,0.008
4990,3245,349.9,7.254,0.004,0.008
5000,3717,350.0,7.254,0.000,0.012
5010,3717,350.0,7.254,0.000,0.008
5020,3717,350.1,7.255,0.000,0.000
5030,3717,350.2,7.254,0.000,0.000
5040,3717,350.2,7.254,0.000,0.000
5050,3717,350.3,7.254,0.000,0.000
5060,3717,350.4,7.254,0.000,0.004
5070,3717,350.4,7.254,0.000,0.000
5080,3717,350.4,7.254,0.008,0.020
5090,3717,350.4,7.254,0.000,0.012
5100,3717,350.5,7.254,0.000,0.004
5110,3717,350.4,7.254,0.000,0.008
5120,3717,350.4,7.254,0.000,0.000
5130,3717,350.4,7.254,0.004,0.004
5140,3717,350.4,7.254,0.004,0.016
5150,3717,350.5,7.254,0.004,0.004
5160,3717,350.5,7.254,0.004,0.008
5170,3717,350.4,7.254,0.004,0.012
5180,3717,350.4,7.254,0.000,0.000
5190,3717,350.4,7.254,0.000,0.004
5200,3717,350.4,7.254,0.004,0.008
5210,3717,350.5,7.254,0.004,0.012
5220,3717,350.4,7.254,0.000,0.004
5230,3717,350.5,7.254,0.004,0.012
5240,3717,350.4,7.254,0.000,0.008
5250,3717,350.5,7.254,0.000,0.004
5260,3717,350.5,7.254,0.000,0.000
5270,3717,350.5,7.254,0.000,0.012
5280,3717,350.5,7.255,0.000,0.004
5290,3717,350.5,7.254,0.000,0.016
5300,3717,350.5,7.254,0.000,0.000
5310,3717,350.4,7.254,0.000,0.000
5320,3717,350.4,7.254,0.000,0.008
5330,3717,350.4,7.254,0.000,0.000
5340,3717,350.5,7.254,0.000,0.004
5350,3717,350.4,7.254,0.000,0.004
5360,3717,350.5,7.254,0.000,0.000
5370,3717,350.4,7.254,0.000,0.012
5380,3717,350.5,7.254,0.000,0.000
5390,3717,350.5,7.254,0.000,0.008
5400,3717,350.5,7.254,0.000,0.004
5410,3717,350.5,7.254,0.008,0.016
5420,3717,350.5,7.254,0.000,0.000
5430,3717,350.5,7.254,0.000,0.004
5440,3717,350.5,7.254,0.000,0.000
5450,3717,350.4,7.254,0.000,0.008
5460,3717,350.5,7.254,0.000,0.004
5470,3717,350.5,7.254,0.000,0.000
5480,3717,350.5,7.254,0.000,0.004
5490,3717,350.5,7.254,0.000,0.000
5500,3717,350.5,7.254,0.000,0.000
5510,3717,350.4,7.254,0.000,0.004
5520,3717,350.4,7.254,0.004,0.004
5530,3717,350.5,7.254,0.004,0.008
5540,3717,350.4,7.254,0.000,0.000
5550,3717,350.4,7.254,0.008,0.020
5560,3717,350.4,7.254,0.004,0.004
5570,3717,350.4,7.254,0.000,0.000
5580,3717,350.4,7.254,0.000,0.008
5590,3717,350.4,7.254,0.000,0.000
5600,3717,350.4,7.254,0.000,0.004
5610,3717,350.4,7.254,0.004,0.008
5620,3717,350.4,7.254,0.004,0.012
5630,4178,350.4,7.254,0.000,0.004
5640,4178,350.4,7.254,0.000,0.000
5650,4178,350.3,7.254,0.000,0.004
5660,4178,350.4,7.254,0.008,0.008
5670,4178,350.3,7.254,0.000,0.008
5680,4178,350.3,7.254,0.000,0.008
5690,4178,350.4,7.254,0.000,0.004
5700,4178,350.3,7.254,0.000,0.004
5710,4178,350.3,7.254,0.000,0.004
5720,4178,350.3,7.254,0.000,0.004
5730,4178,350.3,7.254,0.000,0.008
5740,4178,350.3,7.254,0.000,0.004
5750,4178,350.3,7.254,0.000,0.004
5760,4178,350.3,7.254,0.000,0.008
5770,4178,350.3,7.254,0.000,0.004
5780,4178,350.3,7.254,0.000,0.004
5790,4178,350.3,7.254,0.000,0.008
5800,4178,350.3,7.254,0.000,0.000
5810,4178,350.3,7.254,0.000,0.012
5820,4178,350.3,7.254,0.000,0.004
5830,4178,350.3,7.254,0.000,0.008
5840,4178,350.3,7.254,0.000,0.004
5850,4178,350.3,7.254,0.000,0.000
5860,4178,350.3,7.254,0.004,0.004
5870,4178,350.3,7.254,0.000,0.008
5880,4178,350.3,7.254,0.004,0.008
5890,4178,350.3,7.254,0.000,0.004
5900,4178,350.3,7.254,0.004,0.012
5910,4178,350.3,7.254,0.000,0.012
5920,4178,350.3,7.254,0.000,0.000
5930,4178,350.4,7.254,0.004,0.004
5940,4178,350.4,7.254,0.004,0.004
5950,4178,350.4,7.254,0.000,0.000
5960,4178,350.4,7.254,0.000,0.000
5970,4178,350.4,7.254,0.000,0.004
5980,4178,350.4,7.254,0.000,0.004
5990,4178,350.4,7.254,0.000,0.000
6000,4178,350.4,7.254,0.000,0.008
6010,4178,350.4,7.254,0.004,0.008
6020,4178,350.4,7.254,0.000,0.008
6030,4178,350.5,7.254,0.004,0.012
6040,4178,350.4,7.254,0.000,0.000
6050,4178,350.4,7.254,0.000,0.004
6060,4178,350.4,7.254,0.000,0.004
6070,4178,350.4,7.254,0.000,0.000
6080,4178,350.5,7.254,0.004,0.012
6090,4178,350.5,7.254,0.000,0.000
6100,4178,350.5,7.254,0.000,0.004
6110,4178,350.4,7.254,0.000,0.000
6120,4178,350.4,7.254,0.000,0.000
6130,4178,350.4,7.254,0.000,0.000
6140,4178,350.5,7.254,0.000,0.000
6150,4178,350.4,7.254,0.000,0.004
6160,4178,350.4,7.254,0.000,0.008
6170,4178,350.4,7.254,0.000,0.004
6180,4178,350.5,7.254,0.000,0.008
6190,4178,350.5,7.254,0.000,0.008
6200,4178,350.5,7.254,0.004,0.020
6210,4178,350.4,7.254,0.000,0.000
6220,4178,350.4,7.254,0.008,0.020
6230,4178,350.4,7.254,0.000,0.000
6240,4178,350.4,7.254,0.000,0.004
6250,4178,350.4,7.254,0.000,0.000
6260,4639,350.3,7.254,0.000,0.004
6270,4639,350.4,7.254,0.000,0.000
6280,4639,350.4,7.254,0.004,0.008
6290,4639,350.4,7.254,0.000,0.012
6300,4639,350.4,7.254,0.000,0.004
6310,4639,350.4,7.254,0.000,0.008
6320,4639,350.4,7.254,0.000,0.008
6330,4639,350.3,7.254,0.000,0.004
6340,4639,350.3,7.254,0.000,0.000
6350,4639,350.3,7.254,0.000,0.004
6360,4639,350.4,7.254,0.004,0.008
6370,4639,350.3,7.254,0.004,0.012
6380,4639,350.3,7.254,0.000,0.004
6390,4639,350.3,7.254,0.000,0.000
6400,4639,350.3,7.254,0.000,0.000
6410,4639,350.3,7.254,0.004,0.004
6420,4639,350.3,7.254,0.000,0.000
6430,4639,350.3,7.254,0.000,0.004
6440,4639,350.3,7.254,0.000,0.008
6450,4639,350.3,7.254,0.004,0.012
6460,4639,350.3,7.254,0.000,0.004
6470,4639,350.3,7.254,0.000,0.008
6480,4639,350.3,7.254,0.004,0.008
6490,4639,350.3,7.254,0.000,0.008
6500,4639,350.3,7.254,0.000,0.004
6510,4639,350.3,7.254,0.000,0.004
6520,4639,350.3,7.254,0.004,0.012
6530,4639,350.3,7.254,0.000,0.000
6540,4639,350.3,7.254,0.000,0.000
6550,4639,350.3,7.254,0.004,0.004
6560,4639,350.3,7.254,0.004,0.008
6570,4639,350.3,7.254,0.004,0.008
6580,4639,350.4,7.254,0.004,0.008
6590,4639,350.3,7.254,0.000,0.016
6600,4639,350.3,7.254,0.000,0.004
6610,4639,350.4,7.254,0.000,0.008
6620,4639,350.3,7.254,0.000,0.012
6630,4639,350.3,7.254,0.000,0.004
6640,4639,350.3,7.254,0.000,0.008
6650,4639,350.3,7.253,0.008,0.012
6660,4639,350.3,7.254,0.000,0.000
6670,4639,350.3,7.254,0.000,0.000
6680,4639,350.3,7.254,0.000,0.008
6690,4639,350.3,7.254,0.000,0.008
6700,4639,350.3,7.254,0.000,0.000
6710,4639,350.3,7.254,0.000,0.000
6720,4639,350.3,7.254,0.000,0.004
6730,4639,350.3,7.254,0.000,0.008
6740,4639,350.3,7.254,0.000,0.004
6750,4639,350.3,7.254,0.000,0.000
6760,4639,350.3,7.254,0.004,0.016
6770,4639,350.3,7.254,0.004,0.004
6780,4639,350.3,7.254,0.000,0.004
6790,4639,350.4,7.254,0.004,0.008
6800,4639,350.3,7.254,0.000,0.004
6810,4639,350.4,7.254,0.000,0.004
6820,4639,350.3,7.254,0.000,0.000
6830,4639,350.3,7.254,0.000,0.008
6840,4639,350.4,7.254,0.000,0.008
6850,4639,350.4,7.254,0.004,0.008
6860,4639,350.4,7.254,0.008,0.008
6870,4639,350.4,7.254,0.000,0.000
6880,4639,350.3,7.254,0.000,0.000
6890,5096,350.3,7.254,0.000,0.000
6900,5096,350.3,7.254,0.000,0.004
6910,5096,350.4,7.254,0.000,0.004
6920,5096,350.3,7.254,0.004,0.012
6930,5096,350.3,7.254,0.004,0.012
6940,5096,350.3,7.254,0.000,0.000
6950,5096,350.3,7.254,0.000,0.004
6960,5096,350.3,7.254,0.000,0.000
6970,5096,350.3,7.254,0.000,0.000
6980,5096,350.3,7.254,0.000,0.000
6990,5096,350.3,7.254,0.000,0.000
7000,5096,350.3,7.254,0.000,0.008
7010,5096,350.3,7.254,0.004,0.008
7020,5096,350.3,7.254,0.004,0.008
7030,5096,350.3,7.254,0.000,0.012
7040,5096,350.4,7.254,0.000,0.012
7050,5096,350.4,7.254,0.004,0.016
7060,5096,350.4,7.254,0.008,0.008
7070,5096,350.4,7.254,0.000,0.004
7080,5096,350.4,7.254,0.000,0.012
7090,5096,350.5,7.254,0.004,0.004
7100,5096,350.4,7.253,0.000,0.000
7110,5096,350.4,7.254,0.000,0.000
7120,5096,350.4,7.254,0.000,0.008
7130,5096,350.4,7.254,0.000,0.004
7140,5096,350.4,7.254,0.000,0.008
7150,5096,350.4,7.254,0.000,0.000
7160,5096,350.4,7.254,0.004,0.012
7170,5096,350.4,7.254,0.000,0.000
7180,5096,350.4,7.254,0.000,0.004
7190,5096,350.4,7.253,0.000,0.008
7200,5096,350.4,7.254,0.008,0.012
7210,5096,350.4,7.254,0.000,0.004
7220,5096,350.4,7.254,0.000,0.012
7230,5096,350.4,7.254,0.004,0.004
7240,5096,350.4,7.254,0.008,0.008
7250,5096,350.4,7.254,0.000,0.004
7260,5096,350.4,7.254,0.008,0.016
7270,5096,350.5,7.254,0.000,0.004
7280,5096,350.4,7.254,0.000,0.000
7290,5096,350.4,7.254,0.004,0.004
7300,5096,350.5,7.254,0.000,0.000
7310,5096,350.4,7.254,0.000,0.000
7320,5096,350.5,7.254,0.000,0.000
7330,5096,350.5,7.254,0.000,0.008
7340,5096,350.4,7.254,0.000,0.004
7350,5096,350.4,7.254,0.000,0.000
7360,5096,350.4,7.254,0.000,0.004
7370,5096,350.4,7.254,0.000,0.004
7380,5096,350.4,7.254,0.000,0.008
7390,5096,350.4,7.254,0.004,0.008
7400,5096,350.4,7.254,0.004,0.008
7410,5096,350.4,7.254,0.004,0.004
7420,5096,350.5,7.254,0.008,0.012
7430,5096,350.5,7.254,0.000,0.008
7440,5096,350.5,7.254,0.004,0.008
7450,5096,350.5,7.254,0.000,0.004
7460,5096,350.5,7.254,0.000,0.000
7470,5096,350.5,7.254,0.004,0.008
7480,5096,350.5,7.254,0.000,0.000
7490,5096,350.5,7.254,0.000,0.004
7500,5096,350.5,7.254,0.000,0.012
7510,5096,350.5,7.254,0.000,0.004
7520,5553,350.5,7.254,0.000,0.008
7530,5553,350.5,7.254,0.000,0.000
7540,5553,350.5,7.254,0.000,0.004
7550,5553,350.5,7.254,0.000,0.004
7560,5553,350.6,7.253,0.000,0.004
7570,5553,350.6,7.254,0.004,0.012
7580,5553,350.6,7.254,0.000,0.012
7590,5553,350.6,7.254,0.008,0.008
7600,5553,350.6,7.253,0.004,0.008
7610,5553,350.6,7.254,0.000,0.000
7620,5553,350.6,7.254,0.000,0.000
7630,5553,350.6,7.254,0.004,0.008
7640,5553,350.6,7.254,0.000,0.004
7650,5553,350.6,7.254,0.000,0.000
7660,5553,350.6,7.254,0.000,0.004
7670,5553,350.5,7.254,0.000,0.004
7680,5553,350.5,7.254,0.000,0.016
7690,5553,350.6,7.254,0.000,0.004
7700,5553,350.6,7.253,0.004,0.008
7710,5553,350.6,7.254,0.004,0.004
7720,5553,350.6,7.254,0.000,0.004
7730,5553,350.6,7.254,0.000,0.008
7740,5553,350.6,7.254,0.000,0.000
7750,5553,350.6,7.254,0.004,0.016
7760,5553,350.6,7.254,0.000,0.000
7770,5553,350.6,7.254,0.000,0.000
7780,5553,350.5,7.254,0.000,0.000
7790,5553,350.6,7.254,0.000,0.012
7800,5553,350.6,7.254,0.004,0.008
7810,5553,350.6,7.254,0.000,0.004
7820,5553,350.6,7.254,0.000,0.000
7830,5553,350.6,7.254,0.004,0.012
7840,5553,350.6,7.254,0.000,0.008
7850,5553,350.7,7.254,0.004,0.008
7860,5553,350.7,7.254,0.000,0.008
7870,5553,350.7,7.254,0.000,0.000
7880,5553,350.7,7.253,0.000,0.004
7890,5553,350.6,7.253,0.004,0.008
7900,5553,350.6,7.254,0.000,0.000
7910,5553,350.6,7.253,0.000,0.008
7920,5553,350.7,7.254,0.000,0.004
7930,5553,350.6,7.254,0.000,0.000
7940,5553,350.6,7.254,0.004,0.004
7950,5553,350.6,7.253,0.000,0.004
7960,5553,350.6,7.254,0.000,0.000
7970,5553,350.7,7.254,0.000,0.008
7980,5553,350.6,7.254,0.000,0.012
7990,5553,350.6,7.254,0.000,0.000
8000,5553,350.6,7.254,0.000,0.004
8010,5553,350.6,7.254,0.000,0.008
8020,5553,350.6,7.254,0.000,0.000
8030,5553,350.6,7.254,0.004,0.004
8040,5553,350.6,7.253,0.000,0.000
8050,5553,350.6,7.254,0.000,0.008
8060,5553,350.6,7.254,0.000,0.004
8070,5553,350.6,7.254,0.000,0.000
8080,5553,350.6,7.254,0.004,0.008
8090,5553,350.7,7.254,0.000,0.004
8100,5553,350.7,7.253,0.000,0.004
8110,5553,350.7,7.254,0.000,0.000
8120,5554,350.7,7.253,0.004,0.004
8130,5554,350.7,7.254,0.000,0.000
8140,5554,350.7,7.254,0.000,0.000
8150,6016,350.7,7.254,0.000,0.008
8160,6016,350.7,7.254,0.000,0.008
8170,6016,350.7,7.254,0.000,0.012
8180,6016,350.7,7.254,0.000,0.004
8190,6016,350.7,7.254,0.000,0.000
8200,6016,350.7,7.254,0.000,0.012
8210,6016,350.7,7.253,0.000,0.004
8220,6016,350.7,7.254,0.000,0.004
8230,6016,350.7,7.254,0.000,0.004
8240,6016,350.7,7.254,0.000,0.000
8250,6016,350.7,7.253,0.004,0.008
8260,6016,350.7,7.254,0.004,0.008
8270,6016,350.7,7.254,0.000,0.008
8280,6016,350.7,7.253,0.000,0.004
8290,6016,350.7,7.253,0.000,0.008
8300,6016,350.7,7.254,0.000,0.008
8310,6016,350.7,7.253,0.000,0.008
8320,6016,350.7,7.254,0.000,0.000
8330,6016,350.7,7.254,0.000,0.000
8340,6016,350.7,7.254,0.000,0.004
8350,6016,350.7,7.254,0.004,0.004
8360,6016,350.7,7.254,0.000,0.004
8370,6016,350.7,7.253,0.000,0.000
8380,6016,350.7,7.253,0.004,0.004
8390,6016,350.7,7.254,0.000,0.008
8400,6016,350.7,7.253,0.000,0.012
8410,6016,350.7,7.254,0.000,0.004
8420,6016,350.7,7.254,0.000,0.004
8430,6016,350.7,7.254,0.004,0.008
8440,6016,350.7,7.254,0.000,0.008
8450,6016,350.7,7.253,0.004,0.004
8460,6016,350.8,7.254,0.000,0.004
8470,6016,350.8,7.254,0.004,0.008
8480,6016,350.7,7.253,0.000,0.000
8490,6016,350.7,7.254,0.004,0.012
8500,6016,350.7,7.254,0.000,0.008
8510,6016,350.7,7.254,0.000,0.000
8520,6016,350.7,7.254,0.004,0.004
8530,6016,350.7,7.253,0.000,0.004
8540,6016,350.7,7.254,0.000,0.012
8550,6016,350.6,7.254,0.000,0.000
8560,6016,350.7,7.254,0.000,0.000
8570,6016,350.7,7.253,0.000,0.000
8580,6016,350.7,7.253,0.000,0.004
8590,6016,350.7,7.254,0.008,0.008
8600,6016,350.7,7.253,0.000,0.000
8610,6016,350.7,7.254,0.000,0.000
8620,6016,350.7,7.254,0.000,0.000
8630,6016,350.7,7.253,0.000,0.012
8640,6016,350.7,7.253,0.000,0.000
8650,6016,350.7,7.254,0.000,0.008
8660,6016,350.7,7.254,0.000,0.004
8670,6016,350.7,7.254,0.000,0.004
8680,6016,350.6,7.253,0.004,0.020
8690,6016,350.6,7.253,0.000,0.008
8700,6016,350.6,7.253,0.012,0.012
8710,6016,350.6,7.254,0.004,0.008
8720,6016,350.6,7.254,0.004,0.012
8730,6016,350.5,7.254,0.000,0.004
8740,6016,350.5,7.253,0.000,0.004
8750,6016,350.5,7.253,0.000,0.000
8760,6016,350.5,7.254,0.000,0.000
8770,6016,350.5,7.253,0.000,0.008
8780,6474,350.5,7.254,0.000,0.008
8790,6474,350.5,7.253,0.004,0.004
8800,6474,350.5,7.253,0.008,0.016
8810,6474,350.6,7.254,0.000,0.008
8820,6474,350.6,7.253,0.000,0.004
8830,6474,350.5,7.254,0.004,0.008
8840,6474,350.6,7.253,0.000,0.000
8850,6474,350.5,7.253,0.000,0.000
8860,6474,350.5,7.254,0.004,0.004
8870,6474,350.5,7.254,0.000,0.004
8880,6474,350.5,7.253,0.000,0.008
8890,6474,350.5,7.253,0.000,0.000
8900,6474,350.5,7.254,0.000,0.004
8910,6475,350.5,7.253,0.000,0.004
8920,6475,350.5,7.254,0.000,0.000
8930,6475,350.5,7.254,0.000,0.000
8940,6475,350.5,7.253,0.000,0.008
8950,6475,350.5,7.254,0.000,0.000
8960,6475,350.5,7.253,0.000,0.008
8970,6475,350.5,7.253,0.000,0.004
8980,6475,350.5,7.254,0.000,0.008
8990,6475,350.5,7.253,0.000,0.000
9000,6475,350.5,7.253,0.000,0.000
9010,6475,350.5,7.254,0.000,0.008
9020,6475,350.5,7.253,0.000,0.000
9030,6475,350.5,7.253,0.000,0.004
9040,6475,350.5,7.254,0.000,0.000
9050,6475,350.5,7.254,0.000,0.000
9060,6475,350.5,7.253,0.004,0.012
9070,6475,350.5,7.254,0.000,0.008
9080,6475,350.5,7.253,0.004,0.008
9090,6475,350.5,7.253,0.000,0.004
9100,6475,350.5,7.253,0.004,0.008
9110,6475,350.5,7.253,0.000,0.008
9120,6475,350.5,7.254,0.004,0.004
9130,6475,350.5,7.253,0.000,0.004
9140,6475,350.5,7.254,0.000,0.000
9150,6475,350.5,7.254,0.000,0.004
9160,6475,350.5,7.254,0.004,0.004
9170,6475,350.5,7.254,0.000,0.012
9180,6475,350.6,7.254,0.000,0.000
9190,6475,350.6,7.253,0.000,0.000
9200,6475,350.6,7.254,0.000,0.004
9210,6475,350.6,7.253,0.000,0.000
9220,6475,350.6,7.253,0.000,0.000
9230,6475,350.6,7.253,0.000,0.004
9240,6475,350.5,7.254,0.000,0.000
9250,6475,350.6,7.253,0.000,0.000
9260,6475,350.6,7.253,0.000,0.004
9270,6475,350.6,7.254,0.008,0.016
9280,6475,350.6,7.254,0.000,0.000
9290,6475,350.6,7.254,0.000,0.008
9300,6475,350.6,7.254,0.000,0.004
9310,6475,350.6,7.253,0.004,0.008
9320,6475,350.6,7.254,0.000,0.008
9330,6475,350.6,7.254,0.000,0.004
9340,6475,350.6,7.253,0.004,0.004
9350,6475,350.6,7.253,0.000,0.000
9360,6475,350.6,7.253,0.000,0.004
9370,6475,350.6,7.253,0.008,0.008
9380,6475,350.6,7.254,0.004,0.008
9390,6475,350.6,7.253,0.004,0.016
9410,6964,350.6,7.254,0.004,0.004
9420,6964,350.6,7.253,0.000,0.000
9430,6964,350.6,7.253,0.004,0.008
9440,6964,350.6,7.253,0.000,0.016
9450,6964,350.6,7.253,0.000,0.004
9460,6964,350.7,7.253,0.004,0.008
9470,6964,350.6,7.254,0.004,0.004
9480,6964,350.6,7.254,0.000,0.004
9490,6964,350.6,7.254,0.004,0.008
9500,6964,350.6,7.253,0.000,0.016
9510,6964,350.6,7.254,0.000,0.004
9520,6964,350.6,7.254,0.000,0.004
9530,6964,350.6,7.254,0.000,0.004
9540,6965,350.5,7.254,0.000,0.000
9550,6965,350.5,7.253,0.000,0.004
9560,6965,350.5,7.253,0.000,0.004
9570,6965,350.5,7.254,0.000,0.004
9580,6965,350.6,7.253,0.004,0.016
9590,6965,350.5,7.254,0.000,0.000
9600,6965,350.5,7.254,0.000,0.004
9610,6965,350.5,7.253,0.000,0.004
9620,6965,350.5,7.254,0.000,0.000
9630,6965,350.5,7.253,0.008,0.012
9640,6965,350.5,7.253,0.004,0.012
9650,6965,350.5,7.253,0.000,0.004
9660,6965,350.5,7.254,0.000,0.008
9670,6965,350.5,7.253,0.000,0.004
9680,6965,350.5,7.253,0.008,0.008
9690,6965,350.5,7.253,0.000,0.000
9700,6965,350.5,7.254,0.000,0.004
9710,6965,350.5,7.253,0.000,0.008
9720,6965,350.5,7.254,0.004,0.012
9730,6965,350.5,7.253,0.004,0.008
9740,6965,350.5,7.254,0.000,0.004
9750,6965,350.5,7.253,0.000,0.016
9760,6965,350.5,7.254,0.000,0.008
9770,6965,350.5,7.253,0.000,0.000
9780,6965,350.5,7.253,0.004,0.012
9790,6965,350.5,7.253,0.004,0.012
9800,6965,350.5,7.254,0.000,0.004
9810,6965,350.5,7.254,0.000,0.012
9820,6965,350.5,7.253,0.000,0.004
9830,6965,350.5,7.253,0.000,0.008
9840,6965,350.6,7.254,0.000,0.000
9850,6965,350.6,7.253,0.000,0.000
9860,6965,350.6,7.253,0.004,0.008
9870,6965,350.6,7.254,0.000,0.004
9880,6965,350.6,7.254,0.004,0.008
9890,6965,350.6,7.253,0.000,0.012
9900,6965,350.6,7.253,0.000,0.008
9910,6965,350.6,7.254,0.000,0.004
9920,6965,350.5,7.254,0.000,0.000
9930,6965,350.6,7.253,0.000,0.004
9940,6965,350.6,7.253,0.000,0.004
9950,6965,350.5,7.253,0.000,0.000
9960,6965,350.5,7.253,0.004,0.012
9970,6965,350.5,7.253,0.004,0.008
9980,6965,349.0,7.253,0.000,0.000
9990,6965,349.1,7.253,0.000,0.000
10000,6965,349.1,7.253,0.000,0.004
10010,6965,349.1,7.253,0.000,0.000
10020,6965,349.2,7.254,0.000,0.004
10030,6965,349.2,7.254,0.000,0.004
10040,7412,349.2,7.253,0.004,0.016
10050,7412,349.2,7.254,0.000,0.000
10060,7412,349.3,7.254,0.000,0.004
10070,7412,349.3,7.253,0.000,0.004
10080,7412,349.3,7.253,0.008,0.020
10090,7412,349.3,7.254,0.000,0.000
10100,7412,349.4,7.253,0.004,0.004
10110,7412,349.4,7.253,0.000,0.004
10120,7412,349.3,7.253,0.000,0.004
10130,7412,349.4,7.253,0.004,0.008
10140,7412,349.4,7.254,0.000,0.004
10150,7412,349.4,7.253,0.000,0.012
10160,7412,349.4,7.254,0.000,0.012
10170,7412,349.4,7.253,0.000,0.000
10180,7412,349.4,7.253,0.000,0.004
10190,7412,349.4,7.253,0.000,0.008
10200,7412,349.4,7.253,0.000,0.008
10210,7412,349.4,7.253,0.016,0.020
10220,7412,349.4,7.253,0.004,0.008
10230,7412,349.4,7.253,0.000,0.004
10240,7412,349.4,7.254,0.000,0.000
10250,7412,349.4,7.253,0.000,0.000
10260,7412,349.4,7.253,0.000,0.000
10270,7412,349.4,7.253,0.000,0.000
10280,7412,349.4,7.253,0.000,0.008
10290,7412,349.4,7.253,0.000,0.004
10300,7412,349.4,7.253,0.000,0.000
10310,7412,349.4,7.253,0.004,0.004
10320,7412,349.4,7.253,0.000,0.004
10330,7412,349.5,7.254,0.000,0.000
10340,7412,349.4,7.253,0.000,0.008
10350,7412,349.4,7.254,0.000,0.004
10360,7412,349.4,7.253,0.000,0.000
10370,7412,349.4,7.253,0.000,0.000
10380,7412,349.4,7.253,0.004,0.004
10390,7412,349.5,7.254,0.000,0.008
10400,7412,349.5,7.253,0.000,0.000
10410,7412,349.5,7.254,0.000,0.000
10420,7412,349.5,7.254,0.000,0.004
10430,7412,349.5,7.253,0.000,0.012
10440,7412,349.5,7.254,0.000,0.000
10450,7412,349.5,7.253,0.000,0.004
10460,7412,349.5,7.253,0.000,0.004
10470,7412,349.5,7.254,0.000,0.000
10480,7412,349.5,7.254,0.000,0.000
10490,7412,349.5,7.253,0.000,0.008
10500,7412,349.5,7.253,0.000,0.000
10510,7412,349.5,7.253,0.000,0.004
10520,7412,349.5,7.254,0.000,0.004
10530,7412,349.5,7.253,0.000,0.008
10540,7412,349.5,7.253,0.000,0.004
10550,7412,349.5,7.254,0.000,0.000
10560,7412,349.5,7.253,0.000,0.008
10570,7412,349.5,7.253,0.000,0.004
10580,7412,349.5,7.253,0.004,0.008
10590,7412,349.5,7.253,0.000,0.000
10600,7412,349.5,7.253,0.000,0.004
10610,7412,349.5,7.253,0.000,0.012
10620,7412,349.5,7.253,0.000,0.000
10630,7412,349.5,7.253,0.004,0.004
10640,7412,349.5,7.253,0.004,0.012
10650,7412,349.5,7.253,0.000,0.016
10660,7864,349.5,7.253,0.000,0.000
10670,7864,349.5,7.253,0.000,0.000
10680,7864,349.5,7.253,0.000,0.012
10690,7864,349.5,7.253,0.008,0.008
10700,7864,349.5,7.253,0.000,0.008
10710,7864,349.5,7.253,0.000,0.000
10720,7864,349.5,7.254,0.000,0.000
10730,7864,349.5,7.254,0.000,0.004
10740,7864,349.5,7.253,0.004,0.004
10750,7864,349.5,7.253,0.004,0.008
10760,7864,349.5,7.253,0.000,0.000
10770,7864,349.5,7.253,0.000,0.008
10780,7864,349.5,7.254,0.000,0.000
10790,7864,349.5,7.253,0.000,0.008
10800,7864,349.5,7.253,0.004,0.004
10810,7864,349.5,7.253,0.004,0.004
10820,7864,349.5,7.253,0.008,0.008
10830,7864,349.5,7.253,0.000,0.000
10840,7864,349.5,7.253,0.004,0.004
10850,7864,349.5,7.253,0.000,0.004
10860,7864,349.5,7.253,0.004,0.004
10870,7864,349.5,7.253,0.000,0.000
10880,7864,349.5,7.254,0.000,0.000
10890,7864,349.5,7.254,0.000,0.004
10900,7864,349.5,7.253,0.000,0.000
10910,7864,349.5,7.253,0.004,0.004
10920,7864,349.5,7.253,0.000,0.004
10930,7864,349.5,7.253,0.000,0.004
10940,7864,349.5,7.253,0.000,0.004
10950,7864,349.5,7.253,0.004,0.008
10960,7864,349.5,7.253,0.008,0.008
10970,7864,349.5,7.254,0.000,0.004
10980,7864,349.5,7.253,0.000,0.004
10990,7864,349.5,7.253,0.004,0.004
11000,7864,349.5,7.253,0.000,0.004
11010,7864,349.5,7.253,0.000,0.000
11020,7864,349.5,7.253,0.000,0.004
11030,7864,349.5,7.253,0.000,0.004
11040,7864,349.5,7.253,0.000,0.008
11050,7864,349.5,7.253,0.000,0.008
11060,7864,349.5,7.253,0.000,0.000
11070,7864,349.5,7.253,0.000,0.012
11080,7864,349.5,7.253,0.000,0.000
11090,7864,349.5,7.253,0.000,0.000
11100,7864,349.6,7.253,0.000,0.000
11110,7864,349.6,7.253,0.000,0.008
11120,7864,349.6,7.253,0.000,0.000
11130,7864,349.6,7.253,0.004,0.012
11140,7864,349.6,7.252,0.004,0.004
11150,7864,349.6,7.253,0.000,0.000
11160,7864,349.6,7.253,0.000,0.000
11170,7864,349.6,7.253,0.000,0.000
11180,7864,349.6,7.253,0.000,0.008
11190,7864,349.6,7.253,0.000,0.012
11200,7864,349.6,7.253,0.000,0.004
11210,7864,349.6,7.253,0.000,0.008
11220,7864,349.6,7.253,0.004,0.004
11230,7864,349.6,7.253,0.000,0.000
11240,7864,349.6,7.253,0.000,0.004
11250,7864,349.6,7.253,0.000,0.000
11260,7864,349.6,7.253,0.000,0.004
11270,7864,349.6,7.254,0.000,0.000
11280,8318,349.6,7.253,0.000,0.004
11290,8318,349.6,7.253,0.004,0.016
11300,8318,349.6,7.252,0.004,0.008
11310,8318,349.6,7.253,0.000,0.004
11320,8318,349.6,7.254,0.000,0.008
11330,8318,349.6,7.252,0.004,0.012
11340,8318,349.6,7.253,0.000,0.004
11350,8318,349.6,7.253,0.000,0.004
11360,8318,349.6,7.252,0.000,0.012
11370,8318,349.6,7.253,0.000,0.000
11380,8318,349.6,7.253,0.000,0.008
11390,8318,349.6,7.253,0.000,0.004
11400,8318,349.6,7.253,0.004,0.004
11410,8318,349.6,7.253,0.004,0.008
11420,8318,349.6,7.253,0.004,0.012
11430,8318,349.6,7.253,0.004,0.004
11440,8318,349.6,7.252,0.000,0.008
11450,8318,349.6,7.253,0.000,0.000
11460,8318,349.6,7.253,0.004,0.020
11470,8318,349.6,7.252,0.000,0.000
11480,8318,349.6,7.253,0.000,0.004
11490,8318,349.6,7.253,0.000,0.000
11500,8318,349.6,7.253,0.000,0.000
11510,8318,349.6,7.253,0.004,0.004
11520,8318,349.6,7.253,0.008,0.012
11530,8318,349.6,7.253,0.000,0.004
11540,8318,349.6,7.253,0.000,0.000
11550,8318,349.6,7.254,0.000,0.000
11560,8318,349.6,7.253,0.004,0.008
11570,8318,349.6,7.254,0.004,0.012
11580,8318,349.7,7.254,0.000,0.004
11590,8318,349.6,7.253,0.008,0.012
11600,8318,349.6,7.254,0.000,0.004
11610,8318,349.7,7.253,0.004,0.004
11620,8318,349.7,7.253,0.000,0.000
11630,8318,349.6,7.253,0.008,0.012
11640,8318,349.7,7.253,0.008,0.020
11650,8318,349.7,7.253,0.000,0.004
11660,8318,349.6,7.253,0.004,0.004
11670,8318,349.6,7.252,0.004,0.012
11680,8318,349.6,7.253,0.000,0.004
11690,8318,349.7,7.253,0.000,0.004
11700,8318,349.7,7.253,0.000,0.000
11710,8318,349.6,7.253,0.000,0.008
11720,8318,349.6,7.253,0.004,0.008
11730,8318,349.6,7.253,0.004,0.012
11740,8318,349.6,7.253,0.000,0.004
11750,8318,349.6,7.253,0.000,0.000
11760,8318,349.7,7.252,0.004,0.012
11770,8318,349.7,7.253,0.004,0.004
11780,8318,349.7,7.253,0.000,0.004
11790,8318,349.7,7.253,0.000,0.000
11800,8318,349.7,7.254,0.000,0.000
11810,8318,349.7,7.253,0.000,0.000
11820,8318,349.6,7.253,0.004,0.004
11830,8318,349.7,7.253,0.000,0.004
11840,8318,349.6,7.253,0.008,0.012
11850,8318,349.6,7.253,0.000,0.000
11860,8318,349.6,7.253,0.000,0.000
11870,8318,349.6,7.254,0.000,0.004
11880,8318,349.6,7.252,0.000,0.004
11890,8318,349.6,7.253,0.000,0.004
11900,8771,349.6,7.253,0.000,0.000
11910,8771,349.6,7.253,0.004,0.008
11920,8771,349.6,7.253,0.000,0.012
11930,8771,349.6,7.253,0.004,0.008
11940,8771,349.6,7.253,0.012,0.012
11950,8771,349.6,7.253,0.000,0.000
11960,8771,349.6,7.253,0.004,0.008
11970,8771,349.6,7.253,0.000,0.000
11980,8771,349.6,7.253,0.000,0.004
11990,8771,349.6,7.253,0.000,0.004
12000,8771,349.7,7.253,0.000,0.004
12010,8771,349.6,7.253,0.000,0.000
12020,8771,349.6,7.253,0.004,0.004
12030,8771,349.6,7.253,0.000,0.000
12040,8771,349.6,7.253,0.000,0.000
12050,8771,349.6,7.253,0.000,0.004
12060,8771,349.6,7.253,0.000,0.000
12070,8771,349.7,7.253,0.000,0.008
12080,8771,349.7,7.252,0.000,0.004
12090,8771,349.7,7.252,0.004,0.008
12100,8771,349.7,7.253,0.000,0.000
12110,8771,349.7,7.254,0.004,0.004
12120,8771,349.7,7.252,0.004,0.016
12130,8771,349.7,7.253,0.000,0.000
12140,8771,349.7,7.252,0.000,0.004
12150,8771,349.7,7.253,0.000,0.000
12160,8771,349.7,7.254,0.000,0.000
12170,8771,349.7,7.253,0.000,0.012
12180,8771,349.7,7.253,0.000,0.000
12190,8771,349.7,7.253,0.000,0.008
12200,8771,349.7,7.253,0.000,0.000
12210,8771,349.7,7.253,0.000,0.008
12220,8771,349.7,7.252,0.000,0.004
12230,8771,349.7,7.253,0.000,0.016
12240,8771,349.7,7.253,0.000,0.004
12250,8771,349.7,7.253,0.004,0.008
12260,8771,349.7,7.253,0.000,0.004
12270,8771,349.7,7.252,0.000,0.004
12280,8771,349.7,7.253,0.000,0.000
12290,8771,349.7,7.253,0.000,0.004
12300,8771,349.7,7.254,0.008,0.012
12310,8771,349.7,7.253,0.000,0.004
12320,8771,349.7,7.253,0.000,0.004
12330,8771,349.7,7.253,0.000,0.000
12340,8771,349.7,7.253,0.000,0.008
12350,8771,349.7,7.253,0.000,0.004
12360,8771,349.7,7.253,0.000,0.004
12370,8771,349.7,7.253,0.004,0.012
12380,8771,349.7,7.253,0.004,0.008
12390,8771,349.7,7.253,0.004,0.016
12400,8771,349.7,7.253,0.004,0.008
12410,8771,349.7,7.253,0.000,0.004
12420,8771,349.7,7.254,0.000,0.000
12430,8771,349.7,7.253,0.000,0.000
12440,8771,349.7,7.252,0.000,0.008
12450,8771,349.7,7.253,0.000,0.008
12460,8771,349.7,7.253,0.000,0.004
12470,8771,349.7,7.253,0.000,0.000
12480,8771,349.7,7.252,0.004,0.020
12490,8771,349.7,7.253,0.000,0.004
12500,8771,349.7,7.252,0.000,0.004
12510,8771,349.7,7.253,0.000,0.004
12520,9224,349.7,7.253,0.004,0.008
12530,9224,349.7,7.253,0.000,0.004
12540,9224,349.7,7.252,0.004,0.008
12550,9224,349.7,7.253,0.004,0.008
12560,9224,349.6,7.253,0.000,0.008
12570,9224,349.7,7.253,0.000,0.004
12580,9224,349.7,7.254,0.000,0.000
12590,9224,349.7,7.253,0.004,0.004
12600,9224,349.7,7.252,0.000,0.004
12610,9224,349.7,7.253,0.000,0.004
12620,9224,349.6,7.253,0.000,0.008
12630,9224,349.7,7.253,0.000,0.004
12640,9224,349.7,7.253,0.000,0.000
12650,9224,349.7,7.253,0.000,0.000
12660,9224,349.7,7.253,0.000,0.004
12670,9224,349.7,7.253,0.000,0.004
12680,9224,349.7,7.253,0.004,0.008
12690,9224,349.7,7.253,0.000,0.004
12700,9224,349.7,7.254,0.000,0.000
12710,9224,349.7,7.252,0.000,0.000
12720,9224,349.7,7.253,0.000,0.008
12730,9224,349.7,7.254,0.004,0.004
12740,9224,349.7,7.253,0.000,0.008
12750,9224,349.7,7.253,0.000,0.000
12760,9224,349.7,7.253,0.000,0.000
12770,9224,349.7,7.253,0.000,0.008
12780,9224,349.7,7.253,0.000,0.004
12790,9224,349.7,7.253,0.000,0.000
12800,9224,349.7,7.252,0.000,0.004
12810,9224,349.7,7.253,0.000,0.004
12820,9224,349.7,7.253,0.000,0.004
12830,9224,349.7,7.253,0.000,0.000
12840,9224,349.7,7.253,0.000,0.004
12850,9224,349.7,7.252,0.000,0.008
12860,9224,349.7,7.253,0.000,0.008
12870,9224,349.7,7.253,0.000,0.000
12880,9224,349.7,7.253,0.004,0.008
12890,9224,349.7,7.252,0.004,0.008
12900,9224,349.7,7.253,0.004,0.004
12910,9224,349.7,7.253,0.008,0.016
12920,9224,349.7,7.253,0.004,0.008
12930,9224,349.7,7.253,0.004,0.004
12940,9224,349.7,7.253,0.000,0.004
12950,9224,349.7,7.253,0.008,0.012
12960,9224,349.7,7.252,0.000,0.004
12970,9224,349.7,7.253,0.000,0.000
12980,9224,349.7,7.254,0.000,0.004
12990,9224,349.7,7.252,0.000,0.008
13000,9224,349.7,7.252,0.000,0.000
13010,9224,349.7,7.252,0.000,0.004
13020,9224,349.7,7.253,0.004,0.012
13030,9224,349.7,7.252,0.004,0.016
13040,9224,349.7,7.253,0.000,0.004
13050,9224,349.7,7.253,0.000,0.000
13060,9224,349.7,7.254,0.000,0.000
13070,9224,349.7,7.253,0.000,0.000
13080,9224,349.7,7.253,0.004,0.008
13090,9224,349.7,7.252,0.000,0.000
13100,9224,349.7,7.253,0.000,0.000
13110,9224,349.7,7.253,0.000,0.004
13120,9224,349.7,7.252,0.000,0.004
13130,9225,349.7,3,0.004,0.020
13140,9678,349.7,7.253,0.008,0.008
13150,9678,349.7,7.253,0.000,0.012
13160,9678,349.7,7.253,0.000,0.004
13170,9678,349.7,7.252,0.000,0.008
13180,9678,349.7,7.253,0.000,0.000
13190,9678,349.7,7.253,0.004,0.012
13200,9678,349.7,7.253,0.000,0.000
13210,9678,349.7,7.253,0.000,0.004
13220,9678,349.7,7.253,0.000,0.000
13230,9678,349.7,7.253,0.000,0.008
13240,9678,349.7,7.252,0.000,0.004
13250,9678,349.7,7.253,0.000,0.008
13260,9678,349.7,7.252,0.000,0.000
13270,9678,349.7,7.253,0.000,0.000
13280,9678,349.7,7.253,0.004,0.004
13290,9678,349.7,7.252,0.000,0.004
13300,9678,349.7,7.253,0.000,0.004
13310,9678,349.7,7.253,0.004,0.012
13320,9678,349.7,7.252,0.000,0.004
13330,9678,349.7,7.253,0.000,0.004
13340,9678,349.7,7.252,0.000,0.000
13350,9678,349.7,7.253,0.004,0.008
13360,9678,349.7,7.253,0.000,0.000
13370,9678,349.7,7.252,0.000,0.008
13380,9678,349.7,7.253,0.000,0.004
13390,9678,349.7,7.253,0.000,0.000
13400,9678,349.7,7.252,0.004,0.008
13410,9678,349.7,7.253,0.000,0.008
13420,9678,349.7,7.253,0.000,0.008
13430,9678,349.7,7.253,0.000,0.000
13440,9678,349.7,7.253,0.000,0.004
13450,9678,349.7,7.253,0.000,0.004
13460,9678,349.7,7.252,0.000,0.000
13470,9678,349.7,7.252,0.004,0.020
13480,9678,349.7,7.252,0.000,0.004
13490,9678,349.7,7.253,0.004,0.008
13500,9678,349.7,7.253,0.000,0.004
13510,9678,349.7,7.253,0.000,0.008
13520,9678,349.7,7.252,0.008,0.008
13530,9678,349.7,7.254,0.004,0.004
13540,9678,349.7,7.253,0.000,0.004
13550,9678,349.7,7.253,0.000,0.004
13560,9678,349.7,7.253,0.004,0.012
13570,9678,349.7,7.253,0.000,0.000
13580,9678,349.7,7.252,0.012,0.016
13590,9678,349.7,7.252,0.000,0.004
13600,9678,349.7,7.253,0.000,0.004
13610,9678,349.7,7.253,0.000,0.008
13620,9678,349.7,7.253,0.000,0.004
13630,9678,349.7,7.254,0.000,0.004
13640,9678,349.7,7.254,0.004,0.008
13650,9678,349.7,7.253,0.000,0.008
13660,9678,349.7,7.252,0.004,0.008
13670,9678,349.7,7.252,0.000,0.004
13680,9678,349.7,7.253,0.000,0.000
13690,9678,349.7,7.253,0.000,0.004
13700,9678,349.7,7.252,0.000,0.004
13710,9678,349.7,7.252,0.004,0.004
13720,9678,349.7,7.253,0.004,0.008
13730,9678,349.7,7.252,0.000,0.004
13740,9678,349.7,7.252,0.004,0.012
13750,9678,349.7,1519757552274,000,0.000
13760,10133,349.7,7.253,0.000,0.000
13770,10133,349.7,7.253,0.000,0.004
13780,10133,349.7,7.252,0.000,0.004
13790,10133,349.7,7.252,0.000,0.000
13800,10133,349.7,7.252,0.000,0.000
13810,10133,349.7,7.253,0.004,0.008
13820,10133,349.7,7.253,0.000,0.012
13830,10133,349.7,7.253,0.004,0.012
13840,10133,349.7,7.252,0.000,0.008
13850,10133,349.7,7.253,0.000,0.004
13860,10133,349.7,7.253,0.000,0.000
13870,10133,349.7,7.251,0.000,0.008
13880,10133,349.7,7.252,0.004,0.008
13890,10133,349.7,7.253,0.000,0.000
13900,10133,349.7,7.252,0.000,0.000
13910,10133,349.7,7.252,0.000,0.004
13920,10133,349.7,7.252,0.000,0.008
13930,10133,349.7,7.252,0.000,0.008
13940,10133,349.7,7.252,0.004,0.004
13950,10133,349.7,7.252,0.004,0.004
13960,10133,349.7,7.252,0.000,0.000
13970,10133,349.7,7.252,0.000,0.000
13980,10133,349.7,7.253,0.004,0.004
13990,10133,349.7,7.252,0.004,0.012
14000,10133,349.7,7.252,0.004,0.004
14010,10133,349.7,7.253,0.000,0.012
14020,10133,349.7,7.253,0.000,0.000
14030,10133,349.7,7.253,0.000,0.000
14040,10133,349.7,7.252,0.000,0.000
14050,10133,349.7,7.252,0.004,0.012
14060,10133,349.7,7.253,0.000,0.000
14070,10133,349.7,7.252,0.000,0.004
14080,10133,349.7,7.252,0.004,0.012
14090,10133,349.7,7.252,0.000,0.004
14100,10133,349.7,7.252,0.000,0.004
14110,10133,349.7,7.253,0.000,0.000
14120,10133,349.7,7.252,0.000,0.004
14130,10133,349.7,7.253,0.004,0.008
14140,10133,349.7,7.253,0.008,0.012
14150,10133,349.7,7.252,0.004,0.004
14160,10133,349.7,7.252,0.000,0.004
14170,10133,349.7,7.253,0.000,0.008
14180,10133,349.7,7.252,0.000,0.012
14190,10133,349.7,7.253,0.000,0.000
14200,10133,349.7,7.253,0.000,0.004
14210,10133,349.7,7.253,0.000,0.000
14220,10133,349.7,7.252,0.000,0.000
14230,10133,349.7,7.253,0.000,0.008
14240,10133,349.7,7.253,0.004,0.012
14250,10133,349.7,7.252,0.000,0.004
14260,10133,349.7,7.251,0.008,0.016
14270,10133,349.7,7.253,0.000,0.004
14280,10133,349.7,7.253,0.000,0.004
14290,10133,349.7,7.252,0.004,0.008
14300,10133,349.7,7.253,0.000,0.000
14310,10133,349.7,7.253,0.000,0.000
14320,10133,349.7,7.252,0.004,0.008
14330,10133,349.7,7.253,0.000,0.008
14340,10133,349.7,7.252,0.008,0.008
14350,10133,349.7,7.252,0.000,0.008
14360,10133,349.7,7.253,0.000,0.008
14380,10582,349.7,7.253,0.000,0.004
14390,10582,349.7,7.252,0.000,0.000
14400,10582,349.7,7.252,0.000,0.000
14410,10582,349.7,7.252,0.000,0.012
14420,10582,349.7,7.252,0.000,0.000
14430,10582,349.7,7.252,0.000,0.000
14440,10582,349.7,7.252,0.004,0.008
14450,10582,349.7,7.253,0.000,0.004
14460,10582,349.7,7.253,0.000,0.008
14470,10582,349.7,7.252,0.008,0.020
14480,10582,349.7,7.253,0.000,0.000
14490,10582,349.7,7.252,0.004,0.004
14500,10582,349.7,7.252,0.004,0.004
14510,10582,349.7,7.252,0.000,0.000
14520,10582,349.7,7.252,0.000,0.004
14530,10582,349.7,7.253,0.008,0.008
14540,10582,349.7,7.253,0.000,0.004
14550,10582,349.7,7.253,0.000,0.004
14560,10582,349.7,7.252,0.000,0.004
14570,10582,349.7,7.252,0.000,0.004
14580,10582,349.7,7.253,0.000,0.012
14590,10582,349.7,7.252,0.000,0.008
14600,10582,349.7,7.252,0.000,0.000
14610,10582,349.7,7.252,0.000,0.000
14620,10582,349.7,7.253,0.004,0.004
14630,10582,349.7,7.252,0.000,0.008
14640,10582,349.7,7.252,0.004,0.004
14650,10582,349.7,7.252,0.000,0.000
14660,10582,349.7,7.252,0.000,0.000
14670,10582,349.7,7.251,0.004,0.004
14680,10582,349.7,7.253,0.000,0.008
14690,10582,349.7,7.253,0.004,0.008
14700,10582,349.7,7.252,0.000,0.008
14710,10582,349.7,7.252,0.000,0.004
14720,10582,349.7,7.252,0.000,0.004
14730,10582,349.7,7.253,0.000,0.000
14740,10582,349.7,7.252,0.000,0.000
14750,10582,349.7,7.253,0.004,0.008
14760,10582,349.7,7.252,0.000,0.000
14770,10582,349.8,7.252,0.004,0.008
14780,10582,349.7,7.252,0.000,0.004
14790,10582,349.8,7.253,0.000,0.000
14800,10582,349.8,7.252,0.000,0.000
14810,10583,349.7,7.251,0.000,0.004
14820,10583,349.8,7.252,0.000,0.004
14830,10583,349.8,7.253,0.000,0.000
14840,10583,349.8,7.252,0.000,0.008
14850,10583,349.8,7.253,0.000,0.000
14860,10583,349.7,7.252,0.000,0.000
14870,10583,349.8,7.252,0.008,0.012
14880,10583,349.7,7.252,0.000,0.008
14890,10583,349.8,7.252,0.000,0.004
14900,10583,349.8,7.253,0.000,0.008
14910,10583,349.7,7.252,0.000,0.008
14920,10583,349.8,7.253,0.000,0.000
14930,10583,349.7,7.252,0.000,0.000
14940,10583,349.8,7.252,0.000,0.004
14950,10583,349.7,7.253,0.000,0.004
14960,10583,349.7,7.252,0.000,0.000
14970,10583,349.7,7.253,0.000,0.000
14980,10583,349.0,7.252,0.000,0.000
14990,10583,349.0,0.001585,1519758483465,0
15000,11069,349.0,7.252,0.000,0.000
15010,11069,349.0,7.251,0.000,0.012
15020,11069,349.1,7.252,0.000,0.012
15030,11069,349.1,7.253,0.004,0.008
15040,11069,349.1,7.252,0.000,0.000
15050,11069,349.1,7.253,0.004,0.008
15060,11069,349.2,7.251,0.008,0.020
15070,11069,349.2,7.251,0.000,0.012
15080,11069,349.2,7.252,0.000,0.008
15090,11069,349.2,7.252,0.000,0.004
15100,11069,349.2,7.253,0.004,0.012
15110,11069,349.2,7.253,0.000,0.004
15120,11069,349.2,7.252,0.004,0.008
15130,11069,349.2,7.253,0.004,0.008
15140,11069,349.2,7.252,0.000,0.000
15150,11069,349.2,7.252,0.000,0.000
15160,11069,349.2,7.252,0.000,0.004
15170,11069,349.2,7.252,0.004,0.008
15180,11069,349.2,7.252,0.000,0.004
15190,11069,349.2,7.253,0.004,0.008
15200,11069,349.1,7.251,0.004,0.008
15210,11069,349.2,7.252,0.000,0.008
15220,11069,349.2,7.253,0.000,0.000
15230,11069,349.2,7.253,0.000,0.008
15240,11069,349.2,7.252,0.000,0.004
15250,11069,349.1,7.253,0.004,0.012
15260,11069,349.1,7.252,0.004,0.004
15270,11069,349.1,7.253,0.000,0.000
15280,11069,349.2,7.253,0.000,0.004
15290,11069,349.2,7.253,0.000,0.000
15300,11069,349.2,7.252,0.000,0.012
15310,11069,349.2,7.251,0.000,0.000
15320,11069,349.2,7.252,0.000,0.004
15330,11069,349.2,7.251,0.000,0.004
15340,11069,349.2,7.253,0.000,0.000
15350,11069,349.1,7.252,0.000,0.000
15360,11069,349.1,7.252,0.000,0.012
15370,11069,349.1,7.252,0.000,0.008
15380,11069,349.1,7.252,0.000,0.000
15390,11069,349.1,7.252,0.000,0.004
15400,11069,349.1,7.251,0.000,0.000
15410,11069,349.1,7.253,0.000,0.004
15420,11069,349.1,7.252,0.000,0.004
15430,11069,349.1,7.252,0.000,0.012
15440,11069,349.1,7.252,0.004,0.012
15450,11069,349.1,7.252,0.000,0.000
15460,11069,349.1,7.252,0.000,0.004
15470,11069,349.1,7.253,0.000,0.008
15480,11069,349.2,7.254,0.000,0.004
15490,11069,349.2,7.253,0.004,0.004
15500,11069,349.2,7.253,0.004,0.012
15510,11069,349.1,7.253,0.000,0.004
15520,11069,349.1,7.252,0.004,0.004
15530,11069,349.2,7.252,0.000,0.004
15540,11069,349.2,7.252,0.000,0.004
15550,11069,349.2,7.252,0.000,0.004
15560,11069,349.2,7.252,0.000,0.004
15570,11069,349.2,7.252,0.000,0.008
15580,11069,349.2,7.252,0.000,0.004
15590,11069,349.2,7.252,0.000,0.004
15600,11069,349.2,7.252,0.000,0.004
15610,11069,349.2,7.252,0.004,0.008
151649,11069,620,7.252,0.000,0.000
15630,11515,349.2,7.252,0.000,0.004
15640,11515,349.2,7.252,0.004,0.004
15650,11515,349.2,7.252,0.000,0.000
15660,11515,349.2,7.252,0.000,0.004
15670,11515,349.2,7.252,0.000,0.000
15680,11515,349.2,7.253,0.004,0.016
15690,11515,349.2,7.252,0.000,0.004
15700,11515,349.2,7.253,0.000,0.000
15710,11515,349.2,7.252,0.000,0.000
15720,11515,349.2,7.253,0.004,0.012
15730,11515,349.2,7.252,0.000,0.012
15740,11515,349.2,7.252,0.004,0.012
15750,11515,349.2,7.252,0.000,0.004
15760,11515,349.2,7.252,0.000,0.000
15770,11515,349.2,7.252,0.000,0.000
15780,11515,349.2,7.253,0.000,0.012
15790,11515,349.2,7.251,0.000,0.008
15800,11515,349.2,7.252,0.000,0.008
15810,11515,349.3,7.252,0.000,0.000
15820,11515,349.3,7.252,0.000,0.012
15830,11515,349.3,7.253,0.000,0.004
15840,11515,349.3,7.253,0.000,0.004
15850,11515,349.3,7.252,0.000,0.012
15860,11515,349.2,7.252,0.000,0.004
15870,11515,349.3,7.252,0.004,0.012
15880,11515,349.3,7.252,0.004,0.016
15890,11515,349.3,7.253,0.000,0.012
15900,11515,349.2,7.252,0.004,0.008
15910,11515,349.3,7.252,0.000,0.012
15920,11515,349.3,7.253,0.008,0.020
15930,11515,349.3,7.253,0.000,0.004
15940,11515,349.3,7.252,0.000,0.004
15950,11515,349.3,7.253,0.000,0.000
15960,11515,349.3,7.253,0.004,0.012
15970,11515,349.3,7.253,0.000,0.004
15980,11515,349.3,7.251,0.000,0.008
15990,11515,349.3,7.251,0.008,0.008
16000,11515,349.3,7.252,0.000,0.008
16010,11515,349.3,7.253,0.000,0.004
16020,11515,349.3,7.253,0.000,0.000
16030,11515,349.3,7.253,0.000,0.000
16040,11516,349.3,7.252,0.004,0.012
16050,11516,349.3,7.253,0.000,0.008
16060,11516,349.3,7.252,0.000,0.004
16070,11516,349.3,7.252,0.004,0.008
16080,11516,349.3,7.252,0.004,0.016
16090,11516,349.3,7.252,0.004,0.008
16100,11516,349.3,7.253,0.000,0.008
16110,11516,349.3,7.252,0.004,0.008
16120,11516,349.3,7.253,0.004,0.008
16130,11516,349.3,7.252,0.000,0.004
16140,11516,349.3,7.252,0.000,0.008
16150,11516,349.3,7.252,0.000,0.000
16160,11516,349.3,7.251,0.008,0.016
16170,11516,349.3,7.252,0.000,0.000
16180,11516,349.3,7.252,0.008,0.008
16190,11516,349.3,7.253,0.000,0.000
16200,11516,349.3,7.252,0.020,0.027
16210,11516,349.3,7.251,0.000,0.004
16220,11516,349.3,7.253,0.000,0.000
16230,11516,349.3,7.252,0.004,0.008
16240,11516,1519759386058,7.253,0.000,0.000
16250,11967,349.3,7.252,0.000,0.004
16260,11967,349.3,7.252,0.004,0.008
16270,11967,349.3,7.252,0.000,0.000
16280,11967,349.3,7.252,0.000,0.004
16290,11967,349.3,7.252,0.004,0.012
16300,11967,349.3,7.252,0.000,0.004
16310,11967,349.3,7.252,0.000,0.004
16320,11967,349.3,7.253,0.000,0.000
16330,11967,349.3,7.253,0.000,0.000
16340,11967,349.3,7.252,0.004,0.012
16350,11967,349.3,7.252,0.000,0.004
16360,11967,349.3,7.252,0.008,0.020
16370,11967,349.3,7.253,0.000,0.000
16380,11967,349.3,7.252,0.000,0.000
16390,11967,349.3,7.252,0.004,0.012
16400,11967,349.3,7.252,0.000,0.016
16410,11967,349.3,7.251,0.000,0.012
16420,11967,349.3,7.252,0.008,0.012
16430,11967,349.3,7.250,0.000,0.012
16440,11967,349.3,7.251,0.004,0.008
16450,11967,349.3,7.251,0.008,0.012
16460,11967,349.3,7.251,0.004,0.004
16470,11967,349.3,7.252,0.000,0.000
16480,11967,349.4,7.252,0.000,0.004
16490,11967,349.4,7.252,0.000,0.008
16500,11967,349.4,7.252,0.000,0.004
16510,11967,349.3,7.251,0.008,0.016
16520,11967,349.4,7.251,0.000,0.000
16530,11967,349.4,7.251,0.000,0.000
16540,11967,349.3,7.252,0.000,0.000
16550,11967,349.4,7.252,0.000,0.008
16560,11967,349.3,7.252,0.004,0.016
16570,11967,349.4,7.251,0.004,0.008
16580,11967,349.4,7.253,0.004,0.004
16590,11967,349.4,7.252,0.000,0.004
16600,11967,349.4,7.252,0.004,0.004
16610,11967,349.4,7.252,0.000,0.012
16620,11967,349.4,7.252,0.000,0.008
16630,11967,349.4,7.252,0.004,0.004
16640,11967,349.4,7.251,0.000,0.008
16650,11967,349.3,7.252,0.000,0.004
16660,11967,349.3,7.252,0.000,0.004
16670,11967,349.4,7.252,0.000,0.000
16680,11967,349.4,7.251,0.000,0.008
16690,11967,349.3,7.252,0.000,0.000
16700,11967,349.4,7.252,0.000,0.004
16710,11967,349.3,7.253,0.004,0.004
16720,11967,349.4,7.251,0.000,0.004
16730,11967,349.4,7.252,0.000,0.000
16740,11967,349.4,7.251,0.000,0.004
16750,11967,349.4,7.252,0.000,0.000
16760,11967,349.4,7.252,0.004,0.004
16770,11967,349.4,7.252,0.000,0.000
16780,11967,349.4,7.253,0.000,0.008
16790,11967,349.4,7.253,0.000,0.004
16800,11967,349.4,7.251,0.000,0.004
16810,11967,349.4,7.251,0.000,0.004
16820,11967,349.4,7.252,0.008,0.012
16830,11967,349.4,7.252,0.004,0.012
16840,11967,349.4,7.252,0.004,0.008
16850,11967,349.4,7.252,0.000,0.004
16870,12416,349.4,7.252,0.000,0.000
16880,12416,349.4,7.252,0.000,0.004
16890,12416,349.4,7.253,0.000,0.004
16900,12416,349.4,7.252,0.000,0.004
16910,12416,349.4,7.254,0.000,0.000
16920,12416,349.4,7.252,0.000,0.008
16930,12416,349.4,7.251,0.000,0.000
16940,12416,349.4,7.252,0.000,0.004
16950,12416,349.4,7.251,0.004,0.020
16960,12416,349.4,7.252,0.000,0.004
16970,12416,349.4,7.252,0.000,0.000
16980,12416,349.4,7.252,0.000,0.004
16990,12416,349.4,7.252,0.000,0.008
17000,12416,349.5,7.252,0.000,0.004
17010,12416,349.5,7.251,0.000,0.000
17020,12416,349.5,7.252,0.000,0.000
17030,12416,349.5,7.252,0.000,0.008
17040,12416,349.5,7.251,0.008,0.008
17050,12416,349.5,7.253,0.000,0.000
17060,12416,349.5,7.252,0.004,0.012
17070,12416,349.5,7.252,0.000,0.000
17080,12416,349.5,7.253,0.004,0.004
17090,12416,349.5,7.252,0.000,0.000
17100,12416,349.5,7.252,0.000,0.000
17110,12416,349.5,7.252,0.004,0.008
17120,12416,349.5,7.252,0.004,0.004
17130,12416,349.5,7.253,0.000,0.000
17140,12416,349.5,7.252,0.000,0.008
17150,12416,349.4,7.252,0.000,0.004
17160,12416,349.4,7.252,0.000,0.004
17170,12416,349.4,7.253,0.000,0.004
17180,12416,349.4,7.252,0.004,0.008
17190,12416,349.5,7.252,0.000,0.004
17200,12416,349.5,7.252,0.000,0.012
17210,12416,349.5,7.251,0.004,0.004
17220,12416,349.5,7.253,0.004,0.012
17230,12416,349.5,7.252,0.000,0.008
17240,12416,349.5,7.251,0.000,0.000
17250,12416,349.4,7.251,0.000,0.000
17260,12416,349.5,7.252,0.004,0.008
17270,12416,349.5,7.252,0.004,0.012
17280,12416,349.5,7.251,0.004,0.012
17290,12416,349.5,7.250,0.000,0.008
17300,12416,349.5,7.251,0.004,0.012
17310,12416,349.5,7.252,0.000,0.000
17320,12416,349.5,7.252,0.000,0.004
17330,12416,349.5,7.250,0.000,0.004
17340,12416,349.5,7.251,0.004,0.012
17350,12416,349.5,7.252,0.000,0.004
17360,12416,349.5,7.251,0.000,0.008
17370,12416,349.5,7.253,0.004,0.012
17380,12416,349.5,7.252,0.000,0.000
17390,12416,349.5,7.251,0.000,0.008
17400,12416,349.5,7.252,0.004,0.012
17410,12416,349.5,7.252,0.004,0.008
17420,12416,349.5,7.251,0.000,0.012
17430,12416,349.5,7.252,0.000,0.000
17440,12416,349.5,7.251,0.000,0.000
17450,12416,349.5,7.251,0.008,0.012
17460,12416,349.5,7.252,0.000,0.004
17470,12416,349.5,7.252,0.000,0.000
17490,12868,349.5,7.252,0.004,0.008
17500,12868,349.5,7.252,0.000,0.004
17510,12868,349.6,7.252,0.004,0.008
17520,12868,349.6,7.251,0.000,0.004
17530,12868,349.5,7.252,0.004,0.004
17540,12868,349.6,7.252,0.004,0.016
17550,12868,349.6,7.252,0.000,0.004
17560,12868,349.6,7.252,0.008,0.020
17570,12868,349.6,7.252,0.000,0.000
17580,12868,349.6,7.252,0.004,0.004
17590,12868,349.6,7.251,0.000,0.000
17600,12868,349.6,7.252,0.000,0.000
17610,12868,349.6,7.252,0.000,0.000
17620,12868,349.6,7.252,0.000,0.008
17630,12868,349.6,7.251,0.004,0.008
17640,12868,349.6,7.252,0.000,0.004
17650,12868,349.6,7.251,0.004,0.004
17660,12868,349.6,7.252,0.000,0.004
17670,12868,349.6,7.252,0.000,0.000
17680,12868,349.6,7.251,0.000,0.008
17690,12868,349.6,7.252,0.000,0.008
17700,12868,349.6,7.250,0.004,0.012
17710,12868,349.6,7.253,0.000,0.000
17720,12868,349.6,7.253,0.000,0.004
17730,12868,349.6,7.251,0.000,0.000
17740,12868,349.6,7.252,0.000,0.004
17750,12868,349.6,7.252,0.000,0.000
17760,12868,349.6,7.252,0.000,0.000
17770,12868,349.6,7.252,0.004,0.008
17780,12868,349.6,7.252,0.000,0.004
17790,12868,349.6,7.251,0.004,0.008
17800,12868,349.6,7.252,0.000,0.004
17810,12868,349.6,7.251,0.000,0.004
17820,12868,349.6,7.252,0.004,0.008
17830,12868,349.6,7.252,0.000,0.008
17840,12868,349.6,7.253,0.000,0.008
17850,12868,349.6,7.251,0.004,0.004
17860,12868,349.6,7.251,0.004,0.004
17870,12868,349.6,7.252,0.000,0.004
17880,12868,349.6,7.251,0.004,0.008
17890,12868,349.6,7.252,0.004,0.004
17900,12868,349.6,7.252,0.004,0.008
17910,12868,349.6,7.252,0.000,0.004
17920,12868,349.6,7.251,0.000,0.000
17930,12868,349.6,7.253,0.000,0.000
17940,12868,349.6,7.250,0.000,0.008
17950,12868,349.6,7.251,0.000,0.012
17960,12868,349.6,7.251,0.004,0.004
17970,12868,349.6,7.251,0.004,0.008
17980,12868,349.6,7.252,0.000,0.004
17990,12868,349.6,7.251,0.000,0.004
18000,12868,349.6,7.252,0.000,0.008
18010,12868,349.6,7.251,0.008,0.012
18020,12868,349.6,7.252,0.000,0.000
18030,12868,349.6,7.252,0.000,0.004
18040,12868,349.6,7.252,0.000,0.012
18050,12868,349.6,7.252,0.000,0.004
18060,12868,349.6,7.252,0.000,0.012
18070,12868,349.6,7.252,0.000,0.000
18080,12868,349.6,7.253,0.004,0.008
18090,12868,349.6,7.251,0.000,0.008
18100,12868,1901,7.252,0.000,0.000
18110,13320,349.6,7.251,0.000,0.004
18120,13321,349.6,7.252,0.004,0.008
18130,13321,349.6,7.251,0.000,0.004
18140,13321,349.6,7.252,0.000,0.004
18150,13321,349.6,7.253,0.004,0.004
18160,13321,349.6,7.251,0.000,0.000
18170,13321,349.6,7.251,0.004,0.012
18180,13321,349.6,7.252,0.000,0.012
18190,13321,349.6,7.251,0.000,0.012
18200,13321,349.6,7.251,0.000,0.004
18210,13321,349.6,7.252,0.004,0.008
18220,13321,349.6,7.250,0.000,0.000
18230,13321,349.6,7.252,0.000,0.000
18240,13321,349.6,7.253,0.000,0.000
18250,13321,349.6,7.252,0.000,0.000
18260,13321,349.6,7.252,0.000,0.004
18270,13321,349.6,7.251,0.000,0.000
18280,13321,349.6,7.252,0.000,0.000
18290,13321,349.6,7.251,0.000,0.008
18300,13321,349.6,7.251,0.000,0.008
18310,13321,349.6,7.252,0.000,0.000
18320,13321,349.6,7.251,0.004,0.008
18330,13321,349.6,7.252,0.000,0.004
18340,13321,349.6,7.252,0.000,0.004
18350,13321,349.6,7.250,0.000,0.000
18360,13321,349.6,7.251,0.000,0.004
18370,13321,349.6,7.252,0.000,0.000
18380,13321,349.6,7.252,0.000,0.004
18390,13321,349.6,7.252,0.000,0.000
18400,13321,349.6,7.251,0.004,0.012
18410,13321,349.6,7.252,0.000,0.012
18420,13321,349.6,7.252,0.000,0.004
18430,13321,349.6,7.252,0.000,0.008
18440,13321,349.6,7.252,0.000,0.000
18450,13321,349.6,7.251,0.000,0.008
18460,13321,349.6,7.251,0.000,0.000
18470,13321,349.7,7.252,0.000,0.004
18480,13321,349.7,7.251,0.000,0.008
18490,13321,349.7,7.250,0.008,0.012
18500,13321,349.7,7.253,0.000,0.004
18510,13321,349.7,7.251,0.000,0.004
18520,13321,349.7,7.252,0.000,0.000
18530,13321,349.7,7.252,0.000,0.012
18540,13321,349.7,7.251,0.000,0.000
18550,13321,349.7,7.250,0.000,0.008
18560,13321,349.6,7.251,0.008,0.008
18570,13321,349.7,7.252,0.000,0.004
18580,13321,349.7,7.251,0.000,0.008
18590,13321,349.7,7.251,0.000,0.000
18600,13321,349.7,7.251,0.004,0.008
18610,13321,349.6,7.250,0.000,0.008
18620,13321,349.7,7.252,0.000,0.008
18630,13321,349.7,7.252,0.000,0.008
18640,13321,349.7,7.251,0.000,0.008
18650,13321,349.7,7.252,0.000,0.004
18660,13321,349.7,7.252,0.000,0.000
18670,13321,349.7,7.250,0.000,0.008
18680,13321,349.7,7.251,0.000,0.008
18690,13321,349.7,7.251,0.000,0.000
18700,13321,349.7,7.251,0.000,0.004
18710,13321,349.7,7.252,0.000,0.000
18720,13321,349.1964,7.251,0.000,0.000
18730,13772,349.6,7.252,0.000,0.004
18740,13772,349.7,7.251,0.004,0.004
18750,13772,349.7,7.251,0.004,0.012
18760,13772,349.7,7.252,0.000,0.000
18770,13772,349.7,7.251,0.004,0.012
18780,13772,349.7,7.252,0.000,0.000
18790,13772,349.7,7.251,0.000,0.008
18800,13772,349.6,7.251,0.000,0.000
18810,13772,349.7,7.252,0.000,0.004
18820,13772,349.7,7.251,0.000,0.008
18830,13772,349.7,7.250,0.000,0.004
18840,13772,349.7,7.252,0.000,0.004
18850,13772,349.7,7.252,0.004,0.012
18860,13772,349.7,7.251,0.000,0.000
18870,13772,349.6,7.251,0.000,0.000
18880,13772,349.7,7.252,0.000,0.008
18890,13772,349.6,7.253,0.000,0.004
18900,13772,349.6,7.251,0.000,0.000
18910,13772,349.7,7.252,0.000,0.000
18920,13772,349.7,7.251,0.004,0.008
18930,13772,349.7,7.251,0.000,0.016
18940,13772,349.7,7.250,0.000,0.008
18950,13772,349.6,7.251,0.004,0.008
18960,13772,349.7,7.250,0.000,0.000
18970,13772,349.7,7.253,0.004,0.016
18980,13772,349.7,7.251,0.004,0.012
18990,13772,349.7,7.251,0.000,0.012
19000,13772,349.7,7.252,0.000,0.000
19010,13772,349.7,7.251,0.004,0.016
19020,13772,349.7,7.251,0.000,0.000
19030,13772,349.6,7.251,0.000,0.004
19040,13772,349.6,7.251,0.004,0.008
19050,13772,349.7,7.251,0.000,0.000
19060,13772,349.7,7.251,0.000,0.000
19070,13772,349.6,7.250,0.000,0.004
19080,13772,349.7,7.253,0.000,0.000
19090,13772,349.6,7.253,0.000,0.012
19100,13772,349.6,7.251,0.004,0.008
19110,13772,349.6,7.251,0.000,0.000
19120,13772,349.6,7.252,0.000,0.008
19130,13772,349.7,7.251,0.000,0.008
19140,13772,349.7,7.250,0.000,0.004
19150,13772,349.7,7.252,0.000,0.000
19160,13772,349.7,7.250,0.000,0.008
19170,13772,349.7,7.252,0.000,0.004
19180,13772,349.7,7.250,0.004,0.016
19190,13772,349.7,7.252,0.000,0.000
19200,13772,349.7,7.252,0.000,0.004
19210,13772,349.7,7.252,0.000,0.004
19220,13772,349.7,7.250,0.000,0.000
19230,13772,349.7,7.251,0.000,0.008
19240,13773,349.7,7.251,0.004,0.008
19250,13773,349.7,7.253,0.000,0.000
19260,13773,349.7,7.251,0.000,0.000
19270,13773,349.7,7.251,0.000,0.004
19280,13773,349.7,7.252,0.004,0.004
19290,13773,349.7,7.251,0.004,0.008
19300,13773,349.7,7.251,0.004,0.012
19310,13773,349.7,7.251,0.000,0.004
19320,13773,349.7,7.250,0.000,0.008
19330,13773,349.7,7.250,0.004,0.008
19340,13773,349.7,7.254,0.000,0.000
19350,14227,349.7,7.251,0.000,0.008
19360,14227,349.7,7.251,0.004,0.008
19370,14227,349.7,7.251,0.000,0.004
19380,14227,349.7,7.252,0.000,0.012
19390,14227,349.7,7.253,0.004,0.008
19400,14227,349.7,7.251,0.000,0.012
19410,14227,349.7,7.252,0.004,0.004
19420,14227,349.7,7.250,0.000,0.012
19430,14227,349.7,7.251,0.000,0.004
19440,14227,349.7,7.250,0.000,0.012
19450,14227,349.7,7.252,0.000,0.004
19460,14227,349.7,7.251,0.000,0.004
19470,14227,349.7,7.251,0.000,0.012
19480,14227,349.7,7.252,0.000,0.008
19490,14227,349.7,7.251,0.004,0.004
19500,14227,349.7,7.252,0.004,0.004
19510,14227,349.7,7.252,0.004,0.004
19520,14227,349.7,7.252,0.000,0.000
19530,14227,349.7,7.251,0.004,0.016
19540,14227,349.7,7.253,0.000,0.000
19550,14227,349.7,7.253,0.000,0.000
19560,14227,349.7,7.251,0.000,0.004
19570,14227,349.7,7.251,0.000,0.000
19580,14227,349.7,7.250,0.000,0.016
19590,14227,349.7,7.251,0.000,0.000
19600,14227,349.7,7.251,0.000,0.004
19610,14227,349.7,7.251,0.000,0.004
19620,14227,349.7,7.250,0.004,0.008
19630,14227,349.7,7.251,0.000,0.008
19640,14227,349.7,7.251,0.000,0.008
19650,14227,349.7,7.251,0.000,0.000
19660,14227,349.7,7.251,0.000,0.000
19670,14227,349.7,7.252,0.000,0.004
19680,14227,349.7,7.251,0.000,0.004
19690,14227,349.7,7.251,0.012,0.016
19700,14227,349.7,7.252,0.004,0.008
19710,14227,349.7,7.251,0.000,0.000
19720,14227,349.7,7.253,0.000,0.004
19730,14227,349.7,7.250,0.000,0.000
19740,14227,349.7,7.251,0.000,0.000
19750,14227,349.7,7.253,0.000,0.008
19760,14227,349.7,7.251,0.000,0.000
19770,14227,349.7,7.253,0.000,0.004
19780,14227,349.7,7.251,0.000,0.000
19790,14227,349.7,7.251,0.000,0.000
19800,14227,349.7,7.251,0.000,0.000
19810,14227,349.7,7.250,0.000,0.004
19820,14227,349.7,7.251,0.004,0.004
19830,14227,349.7,7.250,0.000,0.004
19840,14227,349.7,7.251,0.000,0.004
19850,14227,349.7,7.252,0.004,0.008
19860,14227,349.7,7.249,0.000,0.004
19870,14227,349.7,7.251,0.000,0.000
19880,14227,349.7,7.250,0.000,0.008
19890,14227,349.7,7.251,0.000,0.008
19900,14227,349.7,7.250,0.000,0.008
19910,14227,349.7,7.250,0.000,0.016
19920,14227,349.7,7.251,0.000,0.008
19930,14227,349.7,7.251,0.000,0.000
19940,14227,349.7,7.251,0.000,0.008
19950,14227,349.7,7.251,0.000,0.000
19970,14700,349.0,7.251,0.000,0.000
19980,14700,349.0,7.251,0.000,0.004
19990,14700,349.0,7.251,0.000,0.012
20000,14700,349.0,7.251,0.004,0.008
20010,14700,349.1,7.251,0.000,0.000
20020,14700,349.1,7.251,0.000,0.004
20030,14700,349.1,7.249,0.000,0.016
20040,14700,349.1,7.251,0.004,0.020
20050,14700,349.1,7.250,0.004,0.004
20060,14700,349.1,7.252,0.000,0.008
20070,14700,349.1,7.251,0.000,0.004
20080,14700,349.2,7.251,0.000,0.000
20090,14700,349.1,7.251,0.000,0.008
20100,14700,349.2,7.251,0.000,0.004
20110,14700,349.1,7.254,0.000,0.004
20120,14700,349.1,7.251,0.004,0.004
20130,14700,349.2,7.251,0.000,0.016
20140,14700,349.1,7.250,0.004,0.008
20150,14700,349.2,7.251,0.000,0.000
20160,14700,349.1,7.250,0.000,0.008
20170,14701,349.1,7.248,0.000,0.004
20180,14701,349.1,7.250,0.004,0.008
20190,14701,349.2,7.250,0.000,0.008
20200,14701,349.2,7.251,0.000,0.008
20210,14701,349.1,7.251,0.000,0.008
20220,14701,349.1,7.252,0.000,0.000
20230,14701,349.2,7.250,0.008,0.008
20240,14701,349.2,7.250,0.004,0.004
20250,14701,349.2,7.249,0.004,0.012
20260,14701,349.2,7.251,0.000,0.004
20270,14701,349.2,7.251,0.000,0.004
20280,14701,349.2,7.252,0.000,0.000
20290,14701,349.2,7.249,0.004,0.008
20300,14701,349.2,7.251,0.004,0.004
20310,14701,349.2,7.250,0.000,0.000
20320,14701,349.2,7.249,0.000,0.000
20330,14701,349.2,7.251,0.000,0.004
20340,14701,349.2,7.251,0.000,0.012
20350,14701,349.2,7.250,0.004,0.012
20360,14701,349.2,7.250,0.008,0.008
20370,14701,349.2,7.252,0.004,0.008
20380,14701,349.2,7.251,0.000,0.004
20390,14701,349.2,7.250,0.000,0.004
20400,14701,349.2,7.251,0.000,0.004
20410,14701,349.2,7.251,0.004,0.004
20420,14701,349.2,7.251,0.000,0.004
20430,14701,349.2,7.250,0.000,0.000
20440,14701,349.2,7.251,0.000,0.000
20450,14701,349.2,7.250,0.004,0.008
20460,14701,349.2,7.252,0.000,0.000
20470,14701,349.2,7.251,0.000,0.000
20480,14701,349.2,7.251,0.000,0.004
20490,14701,349.2,7.251,0.000,0.008
20500,14701,349.2,7.252,0.000,0.004
20510,14701,349.2,7.250,0.000,0.016
20520,14701,349.2,7.252,0.000,0.000
20530,14701,349.2,7.250,0.004,0.008
20540,14701,349.2,7.250,0.000,0.000
20550,14701,349.2,7.250,0.004,0.012
20560,14701,349.2,7.250,0.000,0.004
20570,14701,349.2,7.251,0.000,0.004
20580,14701,349.2,7.251,0.000,0.000
20590,15154,349.2,7.251,0.000,0.004
20600,15154,349.2,7.250,0.004,0.004
20610,15154,349.2,7.250,0.000,0.000
20620,15154,349.2,7.253,0.000,0.008
20630,15154,349.2,7.252,0.000,0.004
20640,15154,349.2,7.251,0.000,0.008
20650,15154,349.2,7.250,0.000,0.004
20660,15154,349.2,7.250,0.000,0.004
20670,15154,349.2,7.250,0.004,0.004
20680,15154,349.2,7.250,0.000,0.008
20690,15154,349.2,7.252,0.000,0.000
20700,15154,349.2,7.250,0.004,0.004
20710,15154,349.2,7.249,0.000,0.004
20720,15154,349.2,7.251,0.000,0.000
20730,15154,349.2,7.251,0.000,0.000
20740,15154,349.2,7.250,0.000,0.020
20750,15154,349.2,7.249,0.000,0.004
20760,15154,349.2,7.250,0.000,0.000
20770,15154,349.2,7.251,0.000,0.004
20780,15154,349.2,7.251,0.000,0.004
20790,15154,349.2,7.251,0.000,0.000
20800,15154,349.2,7.249,0.000,0.000
20810,15154,349.2,7.250,0.000,0.004
20820,15154,349.2,7.250,0.004,0.008
20830,15154,349.2,7.251,0.000,0.008
20840,15154,349.2,7.249,0.000,0.000
20850,15154,349.3,7.251,0.000,0.000
20860,15154,349.2,7.252,0.000,0.000
20870,15154,349.2,7.250,0.000,0.000
20880,15154,349.2,7.251,0.000,0.000
20890,15154,349.2,7.250,0.000,0.008
20900,15154,349.2,7.249,0.000,0.008
20910,15154,349.2,7.250,0.004,0.008
20920,15154,349.2,7.250,0.004,0.004
20930,15154,349.2,7.252,0.000,0.008
20940,15154,349.2,7.251,0.000,0.000
20950,15154,349.3,7.251,0.000,0.000
20960,15154,349.2,7.250,0.000,0.004
20970,15154,349.3,7.251,0.000,0.008
20980,15154,349.3,7.249,0.000,0.012
20990,15154,349.2,7.250,0.000,0.000
21000,15154,349.2,7.249,0.000,0.000
21010,15154,349.3,7.249,0.000,0.008
21020,15154,349.3,7.250,0.000,0.008
21030,15154,349.3,7.251,0.004,0.004
21040,15154,349.3,7.251,0.000,0.004
21050,15154,349.3,7.251,0.000,0.004
21060,15154,349.3,7.250,0.000,0.004
21070,15154,349.3,7.251,0.000,0.000
21080,15154,349.3,7.251,0.000,0.008
21090,15154,349.3,7.251,0.000,0.008
21100,15154,349.3,7.249,0.004,0.012
21110,15154,349.3,7.250,0.000,0.012
21120,15154,349.3,7.251,0.000,0.008
21130,15154,349.3,7.250,0.004,0.008
21140,15154,349.3,7.251,0.000,0.000
21150,15154,349.3,7.251,0.000,0.008
21160,15154,349.3,7.250,0.000,0.008
21170,15154,349.3,7.251,0.000,0.023
21180,15154,349.3,7.250,0.004,0.008
21190,15154,349.3,7.250,0.000,0.004
21200,15154,349.3,7.252,0.000,0.008
21210,15605,349.3,7.250,0.004,0.012
21220,15605,349.2,7.250,0.000,0.004
21230,15605,349.3,7.250,0.004,0.004
21240,15605,349.3,7.251,0.000,0.000
21250,15605,349.3,7.248,0.004,0.008
21260,15605,349.3,7.252,0.000,0.008
21270,15605,349.3,7.251,0.000,0.004
21280,15605,349.3,7.248,0.004,0.016
21290,15605,349.3,7.253,0.000,0.004
21300,15605,349.3,7.251,0.000,0.012
21310,15605,349.3,7.249,0.000,0.004
21320,15605,349.3,7.251,0.000,0.004
21330,15605,349.3,7.253,0.004,0.012
21340,15605,349.3,7.250,0.000,0.004
21350,15606,349.3,7.249,0.000,0.004
21360,15606,349.3,7.251,0.004,0.004
21370,15606,349.3,7.250,0.000,0.000
21380,15606,349.3,7.250,0.004,0.004
21390,15606,349.3,7.250,0.000,0.004
21400,15606,349.3,7.248,0.004,0.008
21410,15606,349.3,7.251,0.008,0.008
21420,15606,349.3,7.250,0.008,0.012
21430,15606,349.3,7.252,0.000,0.004
21440,15606,349.3,7.249,0.000,0.012
21450,15606,349.3,7.250,0.000,0.000
21460,15606,349.3,7.249,0.000,0.004
21470,15606,349.3,7.249,0.004,0.008
21480,15606,349.3,7.251,0.000,0.000
21490,15606,349.3,7.250,0.000,0.004
21500,15606,349.3,7.251,0.000,0.000
21510,15606,349.3,7.249,0.000,0.004
21520,15606,349.3,7.251,0.000,0.004
21530,15606,349.3,7.251,0.000,0.000
21540,15606,349.3,7.249,0.000,0.016
21550,15606,349.3,7.251,0.000,0.004
21560,15606,349.3,7.250,0.004,0.012
21570,15606,349.3,7.248,0.000,0.008
21580,15606,349.3,7.247,0.008,0.020
21590,15606,349.3,7.249,0.000,0.000
21600,15606,349.3,7.250,0.004,0.008
21610,15606,349.3,7.250,0.000,0.004
21620,15606,349.3,7.251,0.000,0.008
21630,15606,349.3,7.251,0.004,0.012
21640,15606,349.3,7.249,0.000,0.004
21650,15606,349.3,7.250,0.004,0.008
21660,15606,349.3,7.249,0.000,0.012
21670,15606,349.3,7.251,0.000,0.008
21680,15606,349.3,7.249,0.000,0.012
21690,15606,349.3,7.251,0.000,0.012
21700,15606,349.3,7.249,0.000,0.012
21710,15606,349.3,7.249,0.004,0.012
21720,15606,349.3,7.249,0.000,0.008
21730,15606,349.3,7.250,0.000,0.000
21740,15606,349.3,7.252,0.000,0.000
21750,15606,349.3,7.251,0.000,0.004
21760,15606,349.3,7.250,0.000,0.000
21770,15606,349.3,7.250,0.004,0.008
21780,15606,349.3,7.249,0.000,0.000
21790,15606,349.3,7.249,0.000,0.008
21800,15606,349.3,7.250,0.000,0.004
21810,15606,349.3,7.249,0.000,0.008
21820,15606,349.3,7.249,0.000,0.004
21830,16059,349.3,7.251,0.004,0.012
21840,16059,349.3,7.249,0.004,0.012
21850,16059,349.3,7.250,0.000,0.008
21860,16059,349.3,7.251,0.000,0.000
21870,16059,349.3,7.250,0.000,0.008
21880,16059,349.3,7.248,0.000,0.008
21890,16059,349.3,7.251,0.000,0.008
21900,16059,349.3,7.249,0.004,0.004
21910,16059,349.3,7.248,0.008,0.008
21920,16059,349.3,7.249,0.012,0.012
21930,16059,349.3,7.249,0.000,0.004
21940,16059,349.3,7.251,0.000,0.000
21950,16059,349.3,7.248,0.008,0.008
21960,16059,349.3,7.251,0.000,0.000
21970,16059,349.3,7.250,0.000,0.004
21980,16059,349.3,7.246,0.008,0.031
21990,16059,349.4,7.248,0.000,0.012
22000,16059,349.3,7.250,0.000,0.000
22010,16059,349.3,7.250,0.004,0.012
22020,16059,349.4,7.248,0.004,0.012
22030,16059,349.4,7.248,0.000,0.004
22040,16059,349.4,7.248,0.000,0.000
22050,16059,349.4,7.252,0.004,0.008
22060,16059,349.3,7.247,0.000,0.008
22070,16059,349.3,7.250,0.004,0.012
22080,16059,349.4,7.250,0.004,0.004
22090,16059,349.4,7.250,0.000,0.004
22100,16059,349.4,7.250,0.000,0.008
22110,16059,349.4,7.251,0.000,0.000
22120,16059,349.4,7.249,0.004,0.004
22130,16059,349.4,7.250,0.000,0.012
22140,16059,349.4,7.250,0.004,0.020
22150,16059,349.4,7.248,0.000,0.012
22160,16059,349.4,7.249,0.004,0.004
22170,16059,349.3,7.249,0.004,0.008
22180,16059,349.3,7.247,0.004,0.016
22190,16059,349.4,7.251,0.004,0.004
22200,16059,349.4,7.251,0.000,0.000
22210,16059,349.4,7.251,0.004,0.004
22220,16059,349.4,7.249,0.000,0.008
22230,16059,349.4,7.249,0.000,0.012
22240,16059,349.4,7.251,0.000,0.004
22250,16059,349.4,7.251,0.000,0.012
22260,16059,349.4,7.249,0.000,0.008
22270,16059,349.4,7.248,0.000,0.004
22280,16059,349.4,7.248,0.000,0.000
22290,16059,349.4,7.247,0.008,0.012
22300,16059,349.4,7.249,0.000,0.012
22310,16059,349.4,7.250,0.000,0.004
22320,16059,349.4,7.249,0.004,0.008
22330,16059,349.4,7.249,0.000,0.000
22340,16059,349.4,7.248,0.004,0.008
22350,16059,349.4,7.251,0.004,0.016
22360,16059,349.4,7.252,0.000,0.008
22370,16059,349.4,7.249,0.000,0.004
22380,16059,349.4,7.250,0.004,0.012
22390,16059,349.4,7.247,0.000,0.012
22400,16059,349.4,7.247,0.004,0.012
22410,16059,349.4,7.251,0.000,0.000
22420,16059,349.4,7.247,0.000,0.012
22430,16059,349.4,7.249,0.000,0.004
22440,16059,349.4,7.248,0.008,0.020
22450,16512,349.4,7.249,0.000,0.008
22460,16512,349.4,7.250,0.000,0.008
22470,16512,349.4,7.247,0.004,0.012
22480,16512,349.4,7.248,0.000,0.008
22490,16512,349.4,7.251,0.004,0.012
22500,16512,349.4,7.250,0.000,0.000
22510,16512,349.4,7.247,0.000,0.004
22520,16512,349.4,7.249,0.000,0.012
22530,16512,349.4,7.249,0.000,0.000
22540,16512,349.4,7.250,0.004,0.008
22550,16512,349.4,7.251,0.000,0.012
22560,16512,349.4,7.247,0.004,0.004
22570,16512,349.4,7.249,0.000,0.008
22580,16512,349.4,7.249,0.000,0.000
22590,16512,349.4,7.248,0.004,0.008
22600,16512,349.4,7.249,0.000,0.012
22610,16512,349.4,7.250,0.000,0.004
22620,16512,349.4,7.250,0.004,0.004
22630,16512,349.4,7.251,0.004,0.012
22640,16512,349.4,7.247,0.000,0.012
22650,16512,349.4,7.248,0.000,0.000
22660,16512,349.4,7.248,0.000,0.012
22670,16512,349.4,7.247,0.000,0.004
22680,16512,349.4,7.250,0.000,0.000
22690,16512,349.4,7.250,0.000,0.000
22700,16512,349.4,7.248,0.000,0.008
22710,16512,349.4,7.249,0.004,0.020
22720,16512,349.4,7.246,0.000,0.008
22730,16512,349.4,7.248,0.000,0.004
22740,16512,349.4,7.251,0.004,0.016
22750,16512,349.4,7.249,0.000,0.000
22760,16512,349.4,7.249,0.000,0.004
22770,16512,349.4,7.247,0.000,0.008
22780,16512,349.4,7.252,0.000,0.000
22790,16512,349.4,7.251,0.004,0.008
22800,16512,349.4,7.249,0.000,0.008
22810,16512,349.4,7.248,0.000,0.000
22820,16512,349.4,7.249,0.000,0.008
22830,16512,349.4,7.247,0.004,0.008
22840,16512,349.4,7.248,0.004,0.008
22850,16512,349.4,7.247,0.000,0.004
22860,16512,349.4,7.248,0.000,0.000
22870,16512,349.4,7.248,0.004,0.004
22880,16512,349.4,7.248,0.008,0.012
22890,16512,349.4,7.251,0.000,0.004
22900,16512,349.4,7.246,0.000,0.008
22910,16512,349.4,7.250,0.000,0.008
22920,16512,349.4,7.251,0.004,0.008
22930,16512,349.4,7.247,0.004,0.016
22940,16512,349.4,7.247,0.004,0.016
22950,16512,349.4,7.249,0.000,0.004
22960,16512,349.4,7.250,0.000,0.004
22970,16512,349.4,7.248,0.000,0.016
22980,16512,349.4,7.249,0.000,0.004
22990,16512,349.4,7.247,0.000,0.016
23000,16512,349.4,7.248,0.004,0.004
23010,16512,349.4,7.247,0.000,0.004
23020,16512,349.4,7.250,0.000,0.008
23030,16512,349.4,7.249,0.000,0.004
23040,16512,349.4,7.245,0.004,0.008
23050,16512,349.4,7.245,0.000,0.004
23060,16512,349.4,247,0.000,0.008
23070,16966,349.4,7.247,0.000,0.012
23080,16966,349.4,7.245,0.004,0.004
23090,16966,349.4,7.246,0.000,0.012
23100,16966,349.4,7.250,0.000,0.004
23110,16966,349.4,7.246,0.000,0.008
23120,16966,349.4,7.250,0.004,0.012
23130,16966,349.4,7.252,0.000,0.000
23140,16966,349.4,7.246,0.000,0.000
23150,16966,349.4,7.245,0.000,0.004
23160,16966,349.4,7.245,0.000,0.000
23170,16966,349.4,7.247,0.004,0.004
23180,16966,349.4,7.246,0.004,0.016
23190,16966,349.4,7.248,0.000,0.004
23200,16966,349.4,7.249,0.004,0.008
23210,16966,349.4,7.246,0.000,0.008
23220,16966,349.4,7.245,0.000,0.012
23230,16966,349.4,7.246,0.000,0.012
23240,16966,349.4,7.248,0.000,0.000
23250,16966,349.4,7.247,0.000,0.004
23260,16966,349.4,7.247,0.000,0.012
23270,16966,349.4,7.246,0.000,0.008
23280,16966,349.4,7.249,0.000,0.008
23290,16966,349.4,7.247,0.000,0.008
23300,16966,349.4,7.245,0.000,0.012
23310,16966,349.4,7.249,0.000,0.000
23320,16966,349.4,7.244,0.008,0.016
23330,16966,349.4,7.247,0.000,0.004
23340,16966,349.4,7.248,0.000,0.004
23350,16966,349.4,7.243,0.000,0.000
23360,16966,349.4,7.248,0.000,0.008
23370,16966,349.4,7.244,0.004,0.016
23380,16966,349.4,7.243,0.004,0.008
23390,16966,349.4,7.247,0.000,0.004
23400,16966,349.4,7.245,0.004,0.004
23410,16966,349.4,7.248,0.000,0.004
23420,16966,349.4,7.246,0.000,0.004
23430,16966,349.4,7.246,0.000,0.000
23440,16966,349.4,7.244,0.000,0.004
23450,16966,349.4,7.240,0.000,0.008
23460,16966,349.4,7.246,0.000,0.004
23470,16966,349.4,7.246,0.000,0.004
23480,16966,349.4,7.244,0.000,0.016
23490,16966,349.4,7.250,0.004,0.016
23500,16966,349.4,7.244,0.004,0.016
23510,16966,349.4,7.246,0.000,0.000
23520,16966,349.4,7.249,0.000,0.000
23530,16966,349.4,7.248,0.000,0.020
23540,16966,349.4,7.246,0.004,0.016
23550,16966,349.4,7.250,0.004,0.008
23560,16966,349.4,7.244,0.000,0.008
23570,16966,349.4,7.244,0.000,0.008
23580,16966,349.4,7.246,0.000,0.004
23590,16966,349.4,7.247,0.000,0.000
23600,16966,349.4,7.247,0.000,0.000
23610,16966,349.4,7.246,0.000,0.004
23620,16966,349.4,7.246,0.000,0.000
23630,16966,349.4,7.242,0.004,0.008
23640,16966,349.4,7.245,0.000,0.004
23650,16966,349.4,7.243,0.000,0.008
23660,16966,349.4,7.249,0.000,0.000
23670,16966,349.4,7.241,0.000,0.004
23680,16966,349.4,1519764837510,0.004,0.008
23690,17418,349.4,7.241,0.000,0.004
23700,17418,349.4,7.244,0.008,0.008
23710,17418,349.4,7.240,0.000,0.008
23720,17418,349.4,7.240,0.000,0.008
23730,17418,349.4,7.245,0.004,0.008
23740,17418,349.4,7.246,0.000,0.000
23750,17418,349.4,7.242,0.000,0.004
23760,17418,349.4,7.244,0.000,0.008
23770,17418,349.4,7.248,0.000,0.012
23780,17418,349.4,7.240,0.000,0.004
23790,17418,349.4,7.241,0.000,0.000
23800,17418,349.4,7.240,0.000,0.020
23810,17418,349.4,7.239,0.000,0.004
23820,17418,349.4,7.242,0.000,0.008
23830,17418,349.4,7.238,0.004,0.012
23840,17418,349.4,7.247,0.000,0.008
23850,17418,349.4,7.241,0.000,0.008
23860,17418,349.4,7.246,0.000,0.000
23870,17418,349.4,7.243,0.000,0.000
23880,17418,349.4,7.239,0.000,0.008
23890,17418,349.4,7.246,0.000,0.012
23900,17418,349.4,7.233,0.000,0.004
23910,17418,349.4,7.236,0.000,0.008
23920,17418,349.4,7.244,0.000,0.004
23930,17418,349.4,7.242,0.000,0.008
23940,17418,349.4,7.229,0.000,0.012
23950,17418,349.4,7.241,0.000,0.008
23960,17418,349.4,7.231,0.008,0.023
23970,17418,349.4,7.241,0.000,0.012
23980,17418,349.4,7.241,0.004,0.012
23990,17418,349.4,7.242,0.000,0.000
24000,17418,349.4,7.241,0.000,0.000
24010,17418,349.4,7.231,0.000,0.008
24020,17418,349.4,7.239,0.000,0.012
24030,17418,349.4,7.241,0.000,0.004
24040,17418,349.4,7.238,0.000,0.012
24050,17418,349.4,7.234,0.000,0.012
24060,17418,349.4,7.242,0.000,0.012
24070,17418,349.4,7.247,0.000,0.000
24080,17418,349.4,7.228,0.000,0.004
24090,17418,349.4,7.226,0.000,0.008
24100,17418,349.4,7.224,0.004,0.012
24110,17418,349.4,7.228,0.004,0.004
24120,17418,349.4,7.236,0.004,0.008
24130,17418,349.4,7.220,0.008,0.012
24140,17418,349.4,7.221,0.004,0.008
24150,17418,349.4,7.232,0.004,0.008
24160,17418,349.4,7.236,0.000,0.012
24170,17418,349.4,7.231,0.000,0.012
24180,17418,349.4,7.222,0.000,0.000
24190,17418,349.4,7.217,0.000,0.008
24200,17418,349.4,7.225,0.000,0.012
24210,17418,349.4,7.200,0.000,0.012
24220,17418,349.4,7.219,0.000,0.008
24230,17418,349.4,7.228,0.000,0.004
24240,17418,349.4,7.232,0.000,0.004
24250,17418,349.4,7.230,0.000,0.008
24260,17418,349.4,7.208,0.000,0.012
24270,17418,349.4,7.222,0.000,0.008
24280,17418,349.4,7.221,0.004,0.016
24290,17418,349.4,7.212,0.000,0.004
24300,17418,349.4,1519765290013,0,0.012
24310,17871,349.4,7.198,0.004,0.012
24320,17871,349.4,7.233,0.000,0.012
24330,17871,349.4,7.206,0.000,0.000
24340,17871,349.4,7.191,0.004,0.012
24350,17871,349.4,7.220,0.004,0.008
24360,17871,349.4,7.220,0.000,0.004
24370,17871,349.4,7.209,0.000,0.004
24380,17871,349.4,7.200,0.000,0.000
24390,17871,349.5,7.190,0.004,0.020
24400,17871,349.5,7.193,0.008,0.012
24410,17871,349.5,7.217,0.000,0.008
24420,17871,349.4,7.188,0.004,0.020
24430,17871,349.4,7.171,0.000,0.008
24440,17871,349.5,7.192,0.000,0.012
24450,17871,349.5,7.198,0.004,0.004
24460,17871,349.5,7.186,0.000,0.008
24470,17871,349.5,7.224,0.000,0.012
24480,17871,349.5,7.214,0.000,0.000
24490,17871,349.5,7.215,0.004,0.012
24500,17871,349.5,7.179,0.004,0.016
24510,17871,349.5,7.156,0.004,0.020
24520,17871,349.5,7.239,0.012,0.020
24530,17871,349.5,7.158,0.004,0.004
24540,17871,349.5,7.184,0.004,0.012
24550,17871,349.5,7.167,0.004,0.016
24560,17871,349.5,7.251,0.004,0.008
24570,17871,349.5,7.215,0.008,0.012
24580,17871,349.5,7.184,0.000,0.016
24590,17871,349.5,7.140,0.000,0.012
24600,17871,349.5,7.201,0.012,0.020
24610,17871,349.5,7.134,0.004,0.023
24620,17871,349.5,7.178,0.000,0.004
24630,17871,349.5,7.214,0.004,0.012
24640,17871,349.5,7.171,0.000,0.000
24650,17871,349.5,7.108,0.004,0.020
24660,17871,349.5,7.151,0.004,0.012
24670,17871,349.5,7.207,0.004,0.008
24680,17871,349.5,7.185,0.000,0.000
24690,17871,349.5,7.144,0.000,0.012
24700,17871,349.5,7.136,0.004,0.008
24710,17871,349.5,7.130,0.004,0.023
24720,17871,349.5,7.172,0.000,0.012
24730,17871,349.5,7.131,0.008,0.016
24740,17871,349.5,7.141,0.012,0.031
24750,17871,349.5,7.129,0.000,0.008
24760,17871,349.5,7.163,0.000,0.012
24770,17871,349.5,7.114,0.008,0.027
24780,17871,349.5,7.093,0.012,0.020
24790,17871,349.5,7.171,0.000,0.012
24800,17871,349.5,7.141,0.000,0.000
24810,17871,349.5,7.152,0.000,0.012
24820,17871,349.5,7.113,0.008,0.012
24830,17871,349.5,7.155,0.000,0.020
24840,17871,349.5,7.139,0.004,0.012
24850,17871,349.5,7.093,0.000,0.020
24860,17871,349.5,7.151,0.000,0.020
24870,17871,349.5,7.145,0.000,0.008
24880,17871,349.5,7.173,0.000,0.008
24890,17871,349.5,7.114,0.004,0.008
24900,17871,349.5,7.130,0.008,0.016
24910,17871,349.5,7.118,0.000,0.020
24930,18352,349.5,7.129,0.000,0.004
24940,18352,349.5,7.144,0.000,0.012
24950,18352,349.5,7.095,0.000,0.016
24960,18352,349.5,7.119,0.000,0.016
24970,18352,348.9,7.037,0.004,0.016
24980,18352,348.9,7.109,0.000,0.008
24990,18352,349.0,7.189,0.000,0.008
25000,18352,349.0,7.122,0.004,0.012
25010,18352,349.0,7.086,0.004,0.012
25020,18352,349.0,7.125,0.000,0.016
25030,18352,349.0,7.210,0.000,0.008
25040,18352,349.0,7.154,0.004,0.012
25050,18352,349.0,7.099,0.016,0.023
25060,18352,349.0,7.135,0.008,0.008
25070,18352,349.0,7.160,0.004,0.016
25080,18353,349.0,7.079,0.004,0.027
25090,18353,349.1,7.081,0.008,0.008
25100,18353,349.0,7.185,0.008,0.016
25110,18353,349.1,7.177,0.000,0.012
25120,18353,349.1,7.163,0.004,0.004
25130,18353,349.1,7.072,0.008,0.027
25140,18353,349.1,7.145,0.004,0.016
25150,18353,349.1,7.135,0.000,0.016
25160,18353,349.1,7.112,0.004,0.016
25170,18353,349.1,7.144,0.004,0.027
25180,18353,349.1,7.153,0.000,0.016
25190,18353,349.1,7.108,0.004,0.020
25200,18353,349.1,7.091,0.004,0.016
25210,18353,349.1,7.137,0.000,0.020
25220,18353,349.1,7.107,0.004,0.012
25230,18353,349.1,7.144,0.004,0.016
25240,18353,349.1,7.073,0.004,0.020
25250,18353,349.1,7.125,0.008,0.020
25260,18353,349.1,7.146,0.000,0.012
25270,18353,349.1,7.124,0.000,0.012
25280,18353,349.1,7.095,0.012,0.020
25290,18353,349.1,7.085,0.000,0.020
25300,18353,349.1,7.135,0.004,0.012
25310,18353,349.1,7.117,0.012,0.039
25320,18353,349.1,7.180,0.004,0.008
25330,18353,349.1,7.090,0.004,0.016
25340,18353,349.1,7.185,0.000,0.012
25350,18353,349.1,7.155,0.004,0.016
25360,18353,349.1,7.046,0.004,0.027
25370,18353,349.1,7.133,0.004,0.016
25380,18353,349.1,7.156,0.004,0.020
25390,18353,349.1,7.208,0.000,0.004
25400,18353,349.1,7.212,0.004,0.012
25410,18353,349.1,7.119,0.004,0.012
25420,18353,349.1,7.103,0.000,0.012
25430,18353,349.1,7.132,0.004,0.008
25440,18353,349.1,7.121,0.004,0.008
25450,18353,349.1,7.113,0.004,0.012
25460,18353,349.1,7.235,0.004,0.004
25470,18353,349.1,7.158,0.004,0.008
25480,18353,349.1,7.102,0.000,0.020
25490,18353,349.1,7.064,0.008,0.023
25500,18353,349.1,7.130,0.004,0.012
25510,18353,349.1,7.152,0.004,0.012
25520,18353,349.1,7.082,0.020,0.031
25530,18353,349.1,7.104,0.000,0.008
25540,18353,349.1,7.137,0.004,0.016
25550,18807,349.1,7.170,0.004,0.012
25560,18807,349.1,7.105,0.000,0.027
25570,18807,349.1,7.093,0.008,0.016
25580,18807,349.1,7.127,0.004,0.027
25590,18807,349.1,7.138,0.004,0.016
25600,18807,349.1,7.102,0.004,0.016
25610,18807,349.1,7.140,0.000,0.008
25620,18807,349.1,7.133,0.004,0.012
25630,18807,349.1,7.123,0.000,0.016
25640,18807,349.1,7.121,0.008,0.012
25650,18807,349.1,7.032,0.004,0.031
25660,18807,349.1,7.105,0.004,0.012
25670,18807,349.1,7.113,0.000,0.008
25680,18807,349.1,7.106,0.000,0.020
25690,18807,349.1,7.110,0.004,0.023
25700,18807,349.1,7.136,0.004,0.008
25710,18807,349.1,7.120,0.004,0.023
25720,18807,349.1,7.115,0.000,0.020
25730,18807,349.1,7.054,0.000,0.020
25740,18807,349.1,7.155,0.004,0.008
25750,18807,349.1,7.126,0.000,0.012
25760,18807,349.1,7.135,0.004,0.012
25770,18807,349.1,7.133,0.000,0.012
25780,18807,349.1,7.065,0.000,0.008
25790,18807,349.1,7.156,0.008,0.012
25800,18807,349.1,7.130,0.004,0.012
25810,18807,349.1,7.129,0.000,0.004
25820,18807,349.1,7.126,0.000,0.020
25830,18807,349.1,7.087,0.004,0.012
25840,18807,349.1,7.093,0.008,0.016
25850,18807,349.1,7.111,0.004,0.012
25860,18807,349.1,7.092,0.004,0.008
25870,18807,349.1,7.123,0.000,0.004
25880,18807,349.1,7.074,0.000,0.023
25890,18807,349.1,7.070,0.008,0.023
25900,18807,349.1,7.106,0.000,0.008
25910,18807,349.1,7.143,0.000,0.004
25920,18807,349.1,7.056,0.012,0.020
25930,18807,349.1,7.066,0.000,0.000
25940,18807,349.1,7.064,0.012,0.023
25950,18807,349.1,7.108,0.004,0.012
25960,18807,349.1,7.075,0.008,0.031
25970,18807,349.1,7.062,0.008,0.016
25980,18807,349.1,7.118,0.004,0.008
25990,18807,349.1,7.068,0.000,0.035
26000,18807,349.1,7.027,0.012,0.039
26010,18807,349.1,7.188,0.016,0.031
26020,18807,349.1,7.129,0.004,0.027
26030,18807,349.1,7.114,0.000,0.012
26040,18807,349.1,7.147,0.000,0.012
26050,18807,349.1,7.111,0.008,0.020
26060,18807,349.1,7.059,0.000,0.016
26070,18807,349.1,7.143,0.000,0.004
26080,18807,349.1,7.104,0.004,0.027
26090,18807,349.1,7.142,0.000,0.004
26100,18807,349.1,7.123,0.000,0.012
26110,18807,349.1,7.086,0.004,0.012
26120,18807,349.1,7.124,0.004,0.020
26130,18807,349.1,7.048,0.000,0.008
26140,18807,349.1,7.111,0.000,0.012
26150,18807,349.1,7.134,0.004,0.016
26160,18807,349.1,7.023,0.004,0.020
26172725,18807,0,7.099,0.008,0.023
26180,19258,349.1,7.074,0.000,0.031
26190,19258,349.1,7.128,0.004,0.020
26200,19258,349.1,7.089,0.000,0.012
26210,19258,349.1,7.033,0.004,0.035
26220,19258,349.1,7.087,0.000,0.008
26230,19258,349.1,7.152,0.000,0.012
26240,19258,349.1,7.041,0.008,0.016
26250,19258,349.1,7.054,0.000,0.016
26260,19258,349.1,7.155,0.000,0.000
26270,19258,349.1,7.088,0.000,0.008
26280,19258,349.1,7.069,0.004,0.023
26290,19258,349.1,7.181,0.000,0.008
26300,19258,349.1,7.151,0.000,0.012
26310,19258,349.1,7.081,0.000,0.012
26320,19258,349.1,7.062,0.004,0.016
26330,19258,349.1,7.029,0.000,0.020
26340,19258,349.1,7.199,0.000,0.004
26350,19258,349.1,7.093,0.004,0.016
26360,19258,349.1,7.124,0.004,0.016
26370,19258,349.1,7.125,0.000,0.000
26380,19258,349.1,7.099,0.004,0.016
26390,19258,349.1,7.110,0.000,0.012
26400,19259,349.1,7.104,0.000,0.008
26410,19259,349.1,7.153,0.000,0.004
26420,19259,349.1,7.028,0.012,0.023
26430,19259,349.1,7.098,0.004,0.020
26440,19259,349.1,7.077,0.008,0.016
26450,19259,349.1,7.158,0.004,0.020
26460,19259,349.1,7.121,0.004,0.012
26470,19259,349.1,7.084,0.000,0.012
26480,19259,349.1,7.075,0.000,0.012
26490,19259,349.1,7.032,0.000,0.012
26500,19259,349.1,7.053,0.008,0.016
26510,19259,349.1,7.118,0.000,0.016
26520,19259,349.1,7.060,0.004,0.008
26530,19259,349.1,7.141,0.000,0.012
26540,19259,349.1,7.081,0.000,0.020
26550,19259,349.1,7.128,0.000,0.008
26560,19259,349.1,7.117,0.000,0.004
26570,19259,349.1,7.060,0.004,0.020
26580,19259,349.1,7.056,0.008,0.023
26590,19259,349.1,7.060,0.000,0.016
26600,19259,349.1,7.064,0.004,0.020
26610,19259,349.1,7.086,0.008,0.020
26620,19259,349.1,7.108,0.000,0.012
26630,19259,349.1,7.145,0.000,0.016
26640,19259,349.1,7.145,0.004,0.012
26650,19259,349.1,7.114,0.004,0.016
26660,19259,349.1,7.135,0.000,0.012
26670,19259,349.1,7.120,0.008,0.012
26680,19259,349.1,7.050,0.004,0.016
26690,19259,349.1,7.131,0.008,0.027
26700,19259,349.1,7.131,0.008,0.023
26710,19259,349.1,7.166,0.004,0.020
26720,19259,349.1,7.098,0.000,0.012
26730,19259,349.1,7.070,0.004,0.012
26740,19259,349.1,7.040,0.000,0.020
26750,19259,349.1,7.115,0.000,0.012
26760,19259,349.1,7.078,0.004,0.016
26770,19259,349.1,7.053,0.004,0.012
26780,19259,349.2,7.118,0.012,0.027
26800,19715,349.2,7.076,0.000,0.020
26810,19715,349.2,7.095,0.000,0.016
26820,19715,349.2,7.124,0.004,0.004
26830,19715,349.2,7.081,0.000,0.004
26840,19715,349.2,7.117,0.004,0.012
26850,19715,349.2,7.066,0.004,0.016
26860,19715,349.2,7.079,0.004,0.016
26870,19715,349.2,7.099,0.004,0.020
26880,19715,349.2,7.009,0.008,0.023
26890,19715,349.2,7.085,0.004,0.008
26900,19715,349.2,7.045,0.008,0.031
26910,19715,349.2,7.156,0.004,0.012
26920,19715,349.2,7.053,0.004,0.020
26930,19715,349.2,7.068,0.000,0.004
26940,19715,349.2,7.167,0.000,0.008
26950,19715,349.2,7.096,0.004,0.008
26960,19715,349.2,7.065,0.008,0.023
26970,19715,349.2,7.143,0.000,0.004
26980,19715,349.2,7.111,0.004,0.016
26990,19715,349.2,7.101,0.004,0.004
27000,19715,349.2,7.008,0.008,0.023
27010,19715,349.2,7.171,0.000,0.012
27020,19715,349.2,7.057,0.004,0.023
27030,19715,349.2,7.070,0.000,0.020
27040,19715,349.2,7.098,0.004,0.020
27050,19715,349.2,7.129,0.000,0.008
27060,19715,349.2,7.028,0.000,0.012
27070,19715,349.2,7.070,0.000,0.023
27080,19715,349.2,7.099,0.004,0.016
27090,19715,349.2,7.037,0.004,0.031
27100,19715,349.2,7.041,0.004,0.020
27110,19715,349.2,7.076,0.004,0.035
27120,19715,349.2,7.139,0.008,0.008
27130,19715,349.2,7.126,0.004,0.035
27140,19715,349.2,7.078,0.000,0.016
27150,19715,349.2,7.009,0.004,0.016
27160,19715,349.2,7.010,0.004,0.023
27170,19715,349.2,7.051,0.000,0.016
27180,19715,349.2,7.083,0.004,0.027
27190,19715,349.2,7.092,0.008,0.027
27200,19715,349.2,7.072,0.008,0.016
27210,19715,349.2,7.040,0.012,0.039
27220,19715,349.2,7.104,0.008,0.016
27230,19715,349.2,7.074,0.004,0.023
27240,19715,349.2,7.059,0.008,0.023
27250,19715,349.2,7.132,0.000,0.008
27260,19715,349.2,7.055,0.004,0.027
27270,19715,349.2,7.184,0.000,0.027
27280,19715,349.2,7.089,0.008,0.020
27290,19715,349.2,7.056,0.004,0.016
27300,19715,349.2,7.052,0.012,0.016
27310,19715,349.2,7.136,0.008,0.012
27320,19715,349.1,7.113,0.004,0.004
27330,19715,349.1,7.043,0.004,0.031
27340,19715,349.1,7.134,0.000,0.016
27350,19715,349.1,7.163,0.000,0.008
27360,19715,349.1,7.105,0.004,0.020
27370,19715,349.1,7.045,0.008,0.008
27380,19715,349.1,7.089,0.008,0.031
27390,19715,349.1,7.088,0.004,0.016
27400,19715,349.1,7.112,0.000,0.008
27420,20169,349.1,7.050,0.012,0.020
27430,20169,349.1,7.041,0.004,0.020
27440,20169,349.1,7.054,0.008,0.020
27450,20169,349.1,7.049,0.004,0.012
27460,20169,349.1,7.010,0.004,0.027
27470,20169,349.1,7.119,0.012,0.023
27480,20169,349.1,7.038,0.000,0.031
27490,20169,349.1,7.112,0.000,0.012
27500,20169,349.1,7.080,0.004,0.020
27510,20169,349.1,7.067,0.000,0.027
27520,20169,349.2,7.064,0.020,0.035
27530,20169,349.1,7.082,0.004,0.023
27540,20169,349.1,7.100,0.004,0.012
27550,20169,349.1,7.110,0.004,0.008
27560,20169,349.1,7.014,0.004,0.020
27570,20169,349.1,7.079,0.008,0.020
27580,20169,349.1,7.045,0.000,0.020
27590,20169,349.1,7.107,0.000,0.016
27600,20169,349.1,7.079,0.000,0.020
27610,20169,349.1,7.025,0.000,0.020
27620,20169,349.1,7.069,0.016,0.051
27630,20169,349.1,7.035,0.000,0.012
27640,20169,349.1,7.062,0.000,0.012
27650,20169,349.1,7.084,0.000,0.008
27660,20169,349.1,7.059,0.004,0.016
27670,20169,349.1,7.081,0.004,0.012
27680,20169,349.1,7.079,0.004,0.008
27690,20169,349.1,7.077,0.012,0.023
27700,20169,349.1,7.062,0.000,0.016
27710,20169,349.1,7.064,0.008,0.020
27720,20169,349.1,7.068,0.004,0.027
27730,20169,349.1,7.081,0.016,0.031
27740,20169,349.1,7.015,0.008,0.027
27750,20169,349.1,7.082,0.004,0.023
27760,20169,349.1,7.081,0.008,0.023
27770,20169,349.1,7.079,0.008,0.008
27780,20169,349.1,6.999,0.004,0.031
27790,20169,349.1,7.102,0.000,0.016
27800,20169,349.1,7.045,0.008,0.016
27810,20169,349.1,7.047,0.004,0.027
27820,20169,349.1,7.071,0.000,0.016
27830,20169,349.1,7.059,0.004,0.016
27840,20169,349.1,7.049,0.004,0.027
27850,20169,349.1,7.052,0.004,0.023
27860,20169,349.1,7.100,0.000,0.016
27870,20169,349.1,7.078,0.004,0.008
27880,20169,349.1,7.029,0.008,0.020
27890,20169,349.1,7.042,0.008,0.016
27900,20169,349.1,7.082,0.012,0.020
27910,20169,349.1,7.073,0.008,0.020
27920,20169,349.1,7.051,0.000,0.027
27930,20169,349.1,6.995,0.012,0.020
27940,20169,349.1,7.085,0.004,0.012
27950,20169,349.1,7.045,0.000,0.016
27960,20169,349.1,7.071,0.000,0.012
27970,20169,349.1,6.998,0.004,0.012
27980,20169,349.1,7.031,0.004,0.027
27990,20169,349.1,7.075,0.004,0.016
28000,20169,349.1,7.000,0.008,0.031
28010,20169,349.1,7.067,0.004,0.020
28020,20169,349.1,7.091,0.004,0.020
28030,20169,1519768039337,7.110,0.008,0.016
28040,20620,349.1,7.088,0.000,0.020
28050,20620,349.2,7.067,0.008,0.020
28060,20620,349.2,7.082,0.004,0.016
28070,20620,349.1,7.012,0.000,0.035
28080,20620,349.2,7.006,0.016,0.039
28090,20620,349.1,7.083,0.004,0.012
28100,20620,349.2,7.063,0.020,0.027
28110,20620,349.2,7.153,0.004,0.012
28120,20620,349.1,7.080,0.008,0.020
28130,20620,349.1,7.059,0.004,0.008
28140,20620,349.2,7.044,0.004,0.039
28150,20620,349.1,7.115,0.012,0.020
28160,20620,349.1,7.029,0.004,0.016
28170,20620,349.1,7.019,0.008,0.023
28180,20620,349.2,7.062,0.000,0.016
28190,20620,349.2,7.057,0.000,0.008
28200,20620,349.2,7.071,0.000,0.012
28210,20620,349.2,7.023,0.004,0.016
28220,20620,349.2,7.013,0.012,0.035
28230,20620,349.2,6.964,0.000,0.027
28240,20620,349.2,7.061,0.000,0.012
28250,20620,349.2,7.082,0.008,0.012
28260,20620,349.2,7.038,0.000,0.023
28270,20620,349.2,7.068,0.004,0.027
28280,20620,349.2,7.060,0.008,0.020
28290,20620,349.2,7.086,0.008,0.023
28300,20620,349.2,7.020,0.000,0.023
28310,20620,349.2,7.125,0.004,0.031
28320,20620,349.2,7.095,0.004,0.004
28330,20620,349.2,7.038,0.016,0.031
28340,20620,349.1,7.049,0.012,0.031
28350,20620,349.2,7.044,0.008,0.027
28360,20620,349.2,7.072,0.004,0.012
28370,20620,349.2,7.048,0.000,0.016
28380,20620,349.2,7.112,0.000,0.004
28390,20620,349.2,7.132,0.008,0.020
28400,20620,349.2,7.020,0.012,0.035
28410,20620,349.2,7.016,0.000,0.035
28420,20620,349.2,7.041,0.008,0.027
28430,20620,349.2,6.997,0.008,0.023
28440,20620,349.2,7.016,0.012,0.035
28450,20620,349.2,7.007,0.012,0.023
28460,20620,349.2,7.039,0.004,0.016
28470,20620,349.2,7.050,0.000,0.008
28480,20620,349.2,7.035,0.004,0.016
28490,20620,349.2,6.940,0.004,0.027
28500,20620,349.2,7.065,0.000,0.027
28510,20620,349.2,7.020,0.000,0.020
28520,20620,349.2,7.092,0.004,0.023
28530,20620,349.2,7.030,0.016,0.023
28540,20620,349.2,7.089,0.004,0.020
28550,20620,349.2,7.107,0.000,0.004
28560,20620,349.2,7.083,0.004,0.020
28570,20620,349.2,7.071,0.004,0.020
28580,20620,349.2,7.106,0.000,0.023
28590,20620,349.2,7.056,0.008,0.039
28600,20620,349.2,7.020,0.004,0.023
28610,20620,349.2,7.116,0.008,0.020
28620,20620,349.2,7.059,0.000,0.008
28630,20620,349.2,7.054,0.000,0.020
28640,20620,349.2,7.075,0.000,0.023
28650,20620,342977,7.072,0.000,0.020
28660,21072,349.2,6.993,0.008,0.035
28670,21072,349.2,6.979,0.000,0.027
28680,21072,349.2,7.069,0.000,0.008
28690,21072,349.2,7.001,0.004,0.027
28700,21072,349.2,7.113,0.000,0.004
28710,21072,349.2,7.037,0.008,0.023
28720,21072,349.2,7.070,0.004,0.008
28730,21072,349.2,7.095,0.000,0.031
28740,21072,349.2,7.038,0.004,0.020
28750,21072,349.2,7.065,0.000,0.016
28760,21072,349.2,7.016,0.008,0.039
28770,21072,349.2,7.004,0.004,0.020
28780,21072,349.2,6.971,0.012,0.027
28790,21072,349.2,7.006,0.004,0.016
28800,21072,349.2,7.035,0.016,0.035
28810,21072,349.2,7.030,0.008,0.020
28820,21072,349.2,7.036,0.012,0.027
28830,21072,349.2,7.088,0.008,0.020
28840,21072,349.2,7.006,0.008,0.027
28850,21072,349.2,7.055,0.000,0.016
28860,21072,349.2,7.138,0.000,0.012
28870,21072,349.2,7.067,0.008,0.016
28880,21072,349.2,6.973,0.020,0.027
28890,21072,349.2,7.056,0.008,0.020
28900,21072,349.2,7.017,0.012,0.027
28910,21072,349.2,7.061,0.000,0.012
28920,21072,349.2,6.988,0.004,0.027
28930,21072,349.2,7.064,0.000,0.000
28940,21072,349.2,7.000,0.004,0.020
28950,21072,349.2,6.983,0.012,0.031
28960,21072,349.2,7.047,0.004,0.020
28970,21072,349.2,7.155,0.004,0.012
28980,21072,349.2,7.055,0.000,0.023
28990,21072,349.2,7.107,0.000,0.008
29000,21072,349.2,7.031,0.000,0.004
29010,21072,349.2,6.967,0.004,0.027
29020,21072,349.2,7.103,0.000,0.008
29030,21072,349.2,7.089,0.000,0.008
29040,21072,349.2,7.024,0.004,0.027
29050,21072,349.2,7.094,0.000,0.004
29060,21072,349.2,7.084,0.000,0.012
29070,21072,349.2,7.004,0.008,0.035
29080,21072,349.2,7.068,0.000,0.008
29090,21072,349.2,6.993,0.000,0.020
29100,21072,349.2,7.079,0.000,0.020
29110,21072,349.2,6.999,0.016,0.035
29120,21072,349.2,7.083,0.008,0.023
29130,21072,349.2,6.969,0.008,0.012
29140,21072,349.2,7.065,0.000,0.031
29150,21072,349.2,7.046,0.004,0.027
29160,21072,349.2,7.056,0.008,0.031
29170,21072,349.2,6.961,0.008,0.035
29180,21072,349.2,7.009,0.008,0.031
29190,21072,349.2,7.121,0.004,0.016
29200,21072,349.2,7.048,0.012,0.035
29210,21072,349.3,7.042,0.008,0.020
29220,21072,349.2,7.081,0.004,0.020
29230,21072,349.3,7.052,0.012,0.027
29240,21072,349.3,7.133,0.008,0.020
29250,21072,349.3,7.013,0.008,0.027
29260,21072,349.3,7.043,0.004,0.039
29270,21072,349.3,7.052,0.004,0.031
29280,21524,349.3,7.049,0.004,0.016
29290,21524,349.3,7.061,0.004,0.027
29300,21524,349.3,7.044,0.012,0.031
29310,21524,349.2,7.031,0.004,0.016
29320,21524,349.3,7.078,0.008,0.020
29330,21524,349.3,7.043,0.008,0.035
29340,21524,349.3,7.024,0.008,0.016
29350,21524,349.3,7.011,0.004,0.027
29360,21524,349.2,7.070,0.008,0.020
29370,21524,349.3,7.083,0.012,0.020
29380,21524,349.3,7.007,0.000,0.027
29390,21524,349.3,7.043,0.008,0.012
29400,21524,349.2,6.978,0.008,0.020
29410,21524,349.2,7.021,0.008,0.016
29420,21524,349.2,7.029,0.004,0.020
29430,21524,349.3,6.973,0.008,0.020
29440,21524,349.3,7.001,0.016,0.039
29450,21524,349.3,7.138,0.012,0.027
29460,21524,349.3,7.029,0.008,0.020
29470,21524,349.3,7.059,0.004,0.016
29480,21524,349.3,7.004,0.000,0.016
29490,21524,349.3,7.062,0.008,0.016
29500,21524,349.3,7.086,0.000,0.008
29510,21524,349.3,7.043,0.012,0.035
29520,21524,349.3,7.029,0.004,0.027
29530,21524,349.3,7.025,0.008,0.023
29540,21524,349.3,7.080,0.004,0.023
29550,21524,349.3,7.076,0.004,0.023
29560,21524,349.3,7.042,0.000,0.027
29570,21524,349.3,7.034,0.004,0.023
29580,21524,349.3,6.991,0.020,0.031
29590,21524,349.3,7.013,0.004,0.016
29600,21524,349.3,6.971,0.004,0.020
29610,21524,349.3,7.036,0.004,0.016
29620,21524,349.3,7.032,0.004,0.023
29630,21525,349.3,6.966,0.000,0.035
29640,21525,349.3,7.033,0.012,0.023
29650,21525,349.3,7.071,0.000,0.008
29660,21525,349.3,7.097,0.000,0.004
29670,21525,349.3,6.995,0.004,0.020
29680,21525,349.3,7.054,0.008,0.020
29690,21525,349.3,6.968,0.008,0.031
29700,21525,349.3,7.027,0.004,0.008
29710,21525,349.3,7.068,0.000,0.020
29720,21525,349.3,7.055,0.008,0.023
29730,21525,349.3,7.019,0.000,0.016
29740,21525,349.3,7.012,0.016,0.023
29750,21525,349.3,7.118,0.000,0.016
29760,21525,349.3,7.064,0.008,0.012
29770,21525,349.3,6.997,0.008,0.023
29780,21525,349.3,6.975,0.008,0.012
29790,21525,349.3,6.920,0.008,0.031
29800,21525,349.3,7.007,0.004,0.027
29810,21525,349.3,7.005,0.000,0.020
29820,21525,349.3,7.020,0.008,0.039
29830,21525,349.3,7.025,0.008,0.008
29840,21525,349.3,6.982,0.008,0.031
29850,21525,349.3,6.975,0.004,0.020
29860,21525,349.3,6.998,0.004,0.012
29870,21525,349.3,6.970,0.012,0.016
29880,21525,349.3,6.966,0.008,0.016
29900,22000,349.3,7.024,0.000,0.020
29910,22000,349.3,7.039,0.000,0.020
29920,22000,349.3,7.002,0.012,0.031
29930,22000,349.3,6.920,0.008,0.031
29940,22000,349.3,6.973,0.004,0.016
29950,22000,349.3,7.058,0.004,0.008
29960,22000,348.9,7.043,0.012,0.039
29970,22000,348.9,7.073,0.012,0.039
29980,22000,348.9,7.044,0.012,0.027
29990,22000,348.9,7.022,0.012,0.020
30000,22000,348.9,7.054,0.004,0.023
30010,22000,348.9,6.988,0.016,0.043
30020,22000,348.9,7.059,0.004,0.020
30030,22000,348.9,7.123,0.000,0.016
30040,22000,348.9,7.009,0.016,0.039
30050,22000,349.0,7.088,0.000,0.004
30060,22000,349.0,7.021,0.012,0.031
30070,22000,349.0,6.996,0.000,0.020
30080,22000,349.0,7.068,0.004,0.023
30090,22000,349.0,7.009,0.008,0.023
30100,22000,349.0,7.055,0.008,0.020
30110,22000,349.0,6.997,0.008,0.020
30120,22000,349.0,6.987,0.008,0.027
30130,22000,349.0,7.008,0.008,0.031
30140,22000,349.0,7.010,0.008,0.016
30150,22000,349.0,7.009,0.008,0.031
30160,22000,349.0,6.990,0.000,0.012
30170,22000,349.0,6.991,0.004,0.020
30180,22000,349.0,7.026,0.000,0.008
30190,22000,349.0,7.058,0.000,0.020
30200,22000,349.0,6.972,0.020,0.039
30210,22000,349.0,7.029,0.004,0.012
30220,22000,349.0,6.993,0.008,0.027
30230,22000,349.0,7.051,0.008,0.031
30240,22000,349.0,7.013,0.012,0.035
30250,22000,349.0,6.992,0.008,0.027
30260,22000,349.0,7.035,0.012,0.020
30270,22000,349.0,7.060,0.000,0.012
30280,22000,349.0,7.097,0.004,0.023
30290,22000,349.0,6.988,0.000,0.020
30300,22000,349.0,6.962,0.004,0.027
30310,22000,349.0,6.950,0.008,0.020
30320,22000,349.0,7.033,0.004,0.035
30330,22000,349.0,7.017,0.020,0.039
30340,22000,349.0,6.977,0.008,0.027
30350,22000,349.0,7.003,0.000,0.016
30360,22000,349.0,7.061,0.004,0.020
30370,22000,349.0,7.018,0.008,0.027
30380,22000,349.0,6.983,0.016,0.039
30390,22000,349.0,7.055,0.000,0.012
30400,22000,349.0,6.936,0.004,0.031
30410,22000,349.0,7.058,0.004,0.023
30420,22000,349.0,7.015,0.012,0.023
30430,22000,349.0,7.025,0.000,0.020
30440,22000,349.0,7.062,0.000,0.023
30450,22000,349.0,7.019,0.008,0.027
30460,22000,349.0,7.060,0.000,0.008
30470,22000,349.0,7.034,0.004,0.020
30480,22000,349.0,7.057,0.000,0.020
30490,22000,349.0,7.062,0.000,0.031
30500,22000,349.0,6.967,0.004,0.016
30510,22000,349.0,6.966,0.004,0.016
30520,22454,349.0,7.003,0.008,0.023
30530,22454,349.0,7.124,0.012,0.031
30540,22454,349.0,7.007,0.004,0.035
30550,22454,349.0,7.062,0.000,0.012
30560,22454,349.0,7.043,0.004,0.016
30570,22454,349.0,7.022,0.000,0.020
30580,22454,349.0,7.017,0.008,0.016
30590,22454,349.0,7.023,0.012,0.031
30600,22454,349.0,6.922,0.008,0.043
30610,22454,349.0,6.941,0.008,0.035
30620,22454,349.0,6.991,0.004,0.020
30630,22454,349.0,7.106,0.000,0.016
30640,22454,349.0,6.975,0.012,0.031
30650,22454,349.0,7.002,0.008,0.020
30660,22454,349.0,6.990,0.004,0.023
30670,22454,349.0,6.983,0.012,0.031
30680,22454,349.0,6.939,0.008,0.035
30690,22454,349.0,7.128,0.000,0.016
30700,22454,349.0,6.989,0.012,0.027
30710,22454,349.0,7.003,0.008,0.027
30720,22454,349.0,7.083,0.000,0.023
30730,22454,349.0,7.002,0.004,0.027
30740,22454,349.0,7.058,0.008,0.016
30750,22454,349.0,7.006,0.004,0.035
30760,22454,349.0,7.125,0.000,0.008
30770,22454,349.0,6.968,0.008,0.012
30780,22454,349.0,6.955,0.000,0.020
30790,22454,349.0,6.981,0.008,0.020
30800,22454,349.0,7.055,0.008,0.031
30810,22454,349.0,6.957,0.008,0.027
30820,22454,349.0,7.088,0.008,0.020
30830,22454,349.0,7.003,0.004,0.027
30840,22454,349.0,7.106,0.004,0.020
30850,22454,349.0,6.972,0.004,0.023
30860,22454,349.0,6.972,0.008,0.016
30870,22454,349.0,6.867,0.020,0.035
30880,22454,349.0,6.997,0.008,0.020
30890,22454,349.0,6.908,0.004,0.027
30900,22454,349.0,6.967,0.004,0.020
30910,22454,349.0,7.013,0.008,0.020
30920,22454,349.0,7.025,0.004,0.016
30930,22454,349.0,7.039,0.008,0.016
30940,22454,349.0,7.041,0.008,0.031
30950,22454,349.0,7.036,0.008,0.027
30960,22454,349.0,6.943,0.008,0.031
30970,22454,349.0,6.931,0.012,0.039
30980,22454,349.0,6.920,0.012,0.027
30990,22454,349.0,7.041,0.000,0.000
31000,22454,349.0,7.088,0.000,0.000
31010,22454,349.0,7.006,0.012,0.035
31020,22454,349.0,7.014,0.000,0.023
31030,22454,349.0,6.924,0.004,0.027
31040,22454,349.0,6.999,0.008,0.035
31050,22454,349.0,7.029,0.012,0.039
31060,22454,349.0,6.894,0.016,0.055
31070,22454,349.0,7.009,0.012,0.031
31080,22454,349.0,7.016,0.004,0.047
31090,22454,349.0,7.069,0.012,0.020
31100,22454,349.0,6.991,0.012,0.062
31110,22454,349.0,6.995,0.008,0.016
31120,22454,349.0,7.048,0.004,0.020
31130,22454,349.0,7.060,0.008,0.016
31140,22913,349.0,7.016,0.004,0.020
31150,22913,349.0,7.017,0.004,0.020
31160,22913,349.0,7.025,0.004,0.020
31170,22913,349.0,6.990,0.004,0.027
31180,22913,349.0,6.933,0.008,0.027
31190,22913,349.0,6.983,0.012,0.031
31200,22913,349.0,6.981,0.004,0.027
31210,22913,349.0,6.896,0.000,0.020
31220,22913,349.0,7.015,0.008,0.016
31230,22913,349.0,7.006,0.012,0.023
31240,22913,349.0,6.972,0.008,0.051
31250,22913,349.0,6.998,0.004,0.027
31260,22913,349.0,6.998,0.004,0.020
31270,22913,349.0,6.996,0.004,0.031
31280,22913,349.0,6.970,0.004,0.020
31290,22913,349.0,7.036,0.008,0.023
31300,22913,349.0,6.957,0.008,0.027
31310,22913,349.0,7.014,0.012,0.039
31320,22913,349.0,6.948,0.008,0.047
31330,22913,349.0,7.033,0.000,0.012
31340,22913,348.9,7.046,0.004,0.035
31350,22913,349.0,6.928,0.012,0.039
31360,22913,348.9,7.023,0.012,0.020
31370,22913,348.9,6.989,0.000,0.020
31380,22913,348.9,7.020,0.004,0.031
31390,22913,348.9,7.022,0.004,0.020
31400,22913,348.9,6.918,0.004,0.047
31410,22913,348.9,6.993,0.012,0.027
31420,22913,348.9,6.960,0.004,0.020
31430,22913,348.9,6.989,0.008,0.023
31440,22913,348.9,6.908,0.020,0.031
31450,22913,348.9,7.011,0.000,0.016
31460,22913,348.9,6.920,0.020,0.051
31470,22913,348.9,6.912,0.008,0.027
31480,22913,348.9,6.984,0.012,0.039
31490,22913,348.9,7.005,0.004,0.027
31500,22913,348.9,7.000,0.004,0.020
31510,22913,348.9,6.970,0.012,0.035
31520,22913,348.9,7.019,0.004,0.035
31530,22913,348.9,7.104,0.008,0.012
31540,22913,348.9,6.959,0.004,0.023
31550,22913,348.9,6.938,0.012,0.043
31560,22913,348.9,6.968,0.008,0.031
31570,22913,348.9,6.940,0.008,0.020
31580,22913,348.9,6.997,0.008,0.035
31590,22913,348.9,6.947,0.008,0.023
31600,22913,348.9,6.916,0.008,0.020
31610,22913,348.9,7.044,0.012,0.031
31620,22913,348.9,6.975,0.012,0.027
31630,22913,348.9,6.870,0.012,0.047
31640,22913,348.9,7.034,0.012,0.027
31650,22913,348.9,6.984,0.000,0.023
31660,22913,348.9,7.045,0.004,0.023
31670,22913,348.9,6.979,0.008,0.023
31680,22913,348.9,6.952,0.008,0.047
31690,22913,348.9,6.973,0.004,0.023
31700,22913,348.9,7.021,0.008,0.027
31710,22913,348.9,6.993,0.004,0.023
31720,22913,348.9,7.056,0.000,0.008
31730,22913,348.9,7.021,0.004,0.023
31740,22913,348.9,7.011,0.016,0.027
31750,22913,348.9,6.968,0.012,0.035
31760,23370,348.9,6.890,0.008,0.035
31770,23370,348.9,7.020,0.004,0.023
31780,23370,348.9,6.948,0.000,0.016
31790,23370,348.9,6.962,0.012,0.027
31800,23370,348.9,6.905,0.012,0.031
31810,23370,348.9,6.988,0.008,0.020
31820,23370,348.9,7.049,0.004,0.020
31830,23370,348.9,6.990,0.000,0.012
31840,23370,348.9,6.967,0.016,0.023
31850,23370,348.9,6.971,0.000,0.031
31860,23370,348.9,7.098,0.004,0.023
31870,23370,348.9,6.974,0.008,0.016
31880,23370,348.9,6.943,0.008,0.027
31890,23370,348.9,6.958,0.008,0.027
31900,23370,348.9,7.011,0.012,0.027
31910,23370,348.9,7.011,0.012,0.035
31920,23370,348.9,6.980,0.008,0.027
31930,23370,348.9,7.009,0.008,0.031
31940,23370,348.9,7.007,0.000,0.008
31950,23370,348.9,6.919,0.008,0.027
31960,23370,348.9,6.945,0.008,0.039
31970,23370,348.9,6.926,0.016,0.035
31980,23370,348.9,6.934,0.004,0.039
31990,23370,348.9,6.966,0.008,0.039
32000,23370,348.9,6.905,0.004,0.055
32010,23370,348.9,6.982,0.004,0.035
32020,23370,348.9,7.023,0.000,0.008
32030,23370,348.9,6.986,0.008,0.035
32040,23370,348.9,7.012,0.004,0.031
32050,23370,348.9,7.027,0.008,0.023
32060,23370,348.9,6.949,0.004,0.031
32070,23370,348.9,6.890,0.008,0.047
32080,23370,348.9,6.948,0.016,0.035
32090,23370,348.9,6.904,0.008,0.043
32100,23370,348.9,7.026,0.012,0.020
32110,23370,348.9,6.952,0.012,0.035
32120,23370,348.9,6.964,0.004,0.020
32130,23370,348.9,6.994,0.012,0.027
32140,23370,348.9,7.020,0.008,0.023
32150,23370,348.9,6.925,0.008,0.023
32160,23370,348.9,6.919,0.016,0.039
32170,23370,348.9,7.028,0.004,0.023
32180,23370,348.9,6.924,0.004,0.023
32190,23370,348.9,6.986,0.004,0.035
32200,23370,348.9,6.932,0.004,0.027
32210,23370,348.9,6.968,0.000,0.031
32220,23370,348.9,6.889,0.000,0.039
32230,23370,348.9,6.896,0.020,0.039
32240,23370,348.9,6.930,0.023,0.035
32250,23370,348.9,6.912,0.008,0.012
32260,23370,348.9,7.010,0.012,0.023
32270,23370,348.9,6.908,0.008,0.035
32280,23370,348.9,6.952,0.008,0.039
32290,23370,348.9,6.976,0.020,0.039
32300,23370,348.9,6.947,0.012,0.020
32310,23370,348.9,6.955,0.004,0.035
32320,23370,348.9,6.967,0.008,0.031
32330,23370,348.9,6.995,0.000,0.008
32340,23370,348.9,6.918,0.008,0.031
32350,23370,348.9,6.958,0.008,0.027
32360,23370,348.9,6.941,0.008,0.027
32370,23370,348.9,6.923,0.012,0.035
32380,23823,348.9,6.973,0.008,0.031
32390,23823,348.9,6.946,0.012,0.023
32400,23823,348.9,6.999,0.000,0.012
32410,23823,348.9,6.979,0.012,0.035
32420,23823,348.9,6.857,0.016,0.039
32430,23823,348.9,6.950,0.004,0.035
32440,23823,348.9,6.940,0.016,0.027
32450,23823,348.9,6.922,0.008,0.043
32460,23823,348.9,6.900,0.008,0.031
32470,23823,348.9,7.005,0.012,0.031
32480,23823,348.9,7.106,0.008,0.031
32490,23823,348.9,6.861,0.016,0.047
32500,23823,348.9,6.886,0.016,0.035
32510,23823,348.9,6.893,0.008,0.043
32520,23823,348.9,6.929,0.008,0.023
32530,23823,348.9,6.902,0.016,0.043
32540,23823,348.9,6.986,0.012,0.027
32550,23823,348.9,6.880,0.008,0.035
32560,23823,348.9,6.919,0.004,0.012
32570,23823,348.9,6.876,0.012,0.031
32580,23823,348.9,6.966,0.012,0.027
32590,23823,348.9,6.955,0.000,0.027
32600,23823,348.9,6.923,0.012,0.043
32610,23823,348.9,6.940,0.020,0.031
32620,23823,348.9,6.981,0.012,0.031
32630,23823,348.9,6.989,0.012,0.031
32640,23823,348.9,6.974,0.016,0.039
32650,23823,348.9,6.952,0.008,0.031
32660,23823,348.9,6.925,0.004,0.016
32670,23823,348.9,6.926,0.000,0.023
32680,23823,348.9,6.959,0.000,0.016
32690,23823,348.9,6.868,0.016,0.043
32700,23823,348.9,6.956,0.012,0.039
32710,23823,348.9,7.059,0.016,0.020
32720,23823,348.9,6.856,0.016,0.039
32730,23823,348.9,6.898,0.004,0.031
32740,23823,348.9,6.864,0.016,0.051
32750,23823,348.9,6.974,0.000,0.023
32760,23823,348.9,6.827,0.031,0.039
32770,23823,348.9,6.896,0.000,0.035
32780,23823,348.9,6.845,0.012,0.047
32790,23823,348.9,6.998,0.008,0.027
32800,23823,348.9,6.859,0.020,0.035
32810,23823,348.9,7.003,0.016,0.027
32820,23823,348.9,6.959,0.012,0.027
32830,23823,348.9,6.782,0.012,0.047
32840,23823,348.9,6.924,0.004,0.027
32850,23823,348.9,6.974,0.008,0.039
32860,23823,348.9,6.970,0.004,0.020
32870,23823,348.9,6.912,0.004,0.035
32880,23823,348.9,6.924,0.008,0.043
32890,23823,348.9,7.020,0.008,0.012
32900,23823,348.9,6.933,0.004,0.016
32910,23823,348.9,6.996,0.004,0.020
32920,23823,348.9,6.873,0.008,0.039
32930,23823,348.9,6.920,0.008,0.027
32940,23823,348.9,6.903,0.012,0.055
32950,23823,348.9,6.942,0.012,0.039
32960,23823,348.9,6.968,0.016,0.043
32970,23823,348.9,7.032,0.000,0.012
32980,23823,348.9,6.913,0.004,0.051
32990,23823,348.9,6.945,0.012,0.020
33000,24277,348.9,6.972,0.012,0.047
33010,24277,348.9,6.915,0.004,0.031
33020,24277,348.9,6.955,0.004,0.027
33030,24277,348.9,6.891,0.004,0.027
33040,24277,348.9,7.011,0.012,0.020
33050,24277,348.9,6.942,0.004,0.031
33060,24277,348.9,6.897,0.008,0.023
33070,24277,348.9,6.989,0.004,0.008
33080,24277,348.9,6.845,0.027,0.059
33090,24277,348.9,6.997,0.012,0.035
33100,24277,348.9,6.955,0.008,0.020
33110,24277,348.9,6.939,0.012,0.047
33120,24277,348.9,6.863,0.004,0.039
33130,24277,348.9,6.892,0.027,0.035
33140,24277,348.9,6.894,0.004,0.020
33150,24277,348.9,6.892,0.012,0.035
33160,24277,348.9,6.840,0.020,0.043
33170,24277,348.9,6.888,0.008,0.027
33180,24277,348.9,6.901,0.008,0.031
33190,24277,348.9,7.053,0.008,0.023
33200,24277,348.9,6.981,0.004,0.023
33210,24277,348.9,6.874,0.000,0.039
33220,24277,348.9,6.957,0.012,0.031
33230,24277,348.9,6.966,0.016,0.062
33240,24277,348.9,6.879,0.016,0.031
33250,24277,348.9,6.905,0.008,0.047
33260,24277,348.9,6.919,0.004,0.027
33270,24277,348.9,6.930,0.000,0.020
33280,24277,348.9,6.892,0.012,0.043
33290,24277,348.9,6.945,0.012,0.031
33300,24277,348.9,6.915,0.008,0.035
33310,24277,348.9,6.926,0.012,0.027
33320,24277,348.9,6.951,0.012,0.023
33330,24277,348.9,6.865,0.000,0.035
33340,24277,348.9,6.886,0.016,0.055
33350,24277,348.9,6.920,0.000,0.023
33360,24277,348.9,6.947,0.008,0.023
33370,24277,348.9,7.015,0.000,0.031
33380,24277,348.9,6.929,0.004,0.031
33390,24277,348.9,6.945,0.012,0.031
33400,24277,348.9,6.982,0.004,0.016
33410,24277,348.9,6.917,0.016,0.051
33420,24277,348.9,6.941,0.004,0.027
33430,24277,348.9,6.917,0.012,0.043
33440,24277,348.9,6.946,0.000,0.020
33450,24277,348.9,6.821,0.004,0.031
33460,24277,348.9,6.897,0.012,0.027
33470,24277,348.9,7.017,0.008,0.016
33480,24277,348.9,6.951,0.012,0.051
33490,24277,348.9,6.985,0.000,0.016
33500,24277,348.9,6.872,0.008,0.027
33510,24277,348.9,6.937,0.016,0.027
33520,24277,348.9,6.938,0.012,0.016
33530,24277,348.9,7.027,0.004,0.012
33540,24277,348.9,7.015,0.004,0.027
33550,24277,348.9,6.845,0.012,0.027
33560,24277,348.9,6.912,0.004,0.031
33570,24277,348.9,6.907,0.004,0.051
33580,24277,348.9,6.939,0.016,0.035
33590,24277,348.9,6.929,0.000,0.043
33600,24277,348.9,6.846,0.012,0.059
33610,24277,348.9,0,0.012,0.047
33620,24727,348.9,6.834,0.020,0.051
33630,24727,348.9,6.988,0.012,0.023
33640,24727,348.9,6.913,0.016,0.035
33650,24727,348.9,6.994,0.004,0.020
33660,24727,348.9,6.850,0.023,0.051
33670,24727,348.9,6.821,0.016,0.039
33680,24727,349.0,6.843,0.012,0.059
33690,24727,349.0,6.901,0.012,0.039
33700,24727,349.0,6.978,0.008,0.031
33710,24727,348.9,6.910,0.000,0.012
33720,24727,349.0,6.817,0.008,0.043
33730,24727,349.0,6.948,0.008,0.027
33740,24727,349.0,6.855,0.012,0.039
33750,24727,348.9,6.942,0.012,0.031
33760,24727,349.0,6.843,0.012,0.027
33770,24727,349.0,6.988,0.012,0.027
33780,24727,349.0,6.884,0.012,0.027
33790,24727,349.0,6.946,0.000,0.027
33800,24727,349.0,6.931,0.016,0.043
33810,24727,349.0,7.052,0.012,0.031
33820,24727,349.0,6.935,0.008,0.047
33830,24727,349.0,6.894,0.012,0.055
33840,24727,349.0,6.893,0.004,0.043
33850,24727,349.0,6.929,0.012,0.043
33860,24727,349.0,6.897,0.008,0.031
33870,24727,349.0,6.894,0.000,0.035
33880,24727,349.0,6.933,0.012,0.023
33890,24727,349.0,6.867,0.016,0.055
33900,24727,349.0,6.916,0.008,0.035
33910,24727,349.0,6.864,0.016,0.043
33920,24727,349.0,6.739,0.012,0.070
33930,24727,349.0,6.820,0.004,0.023
33940,24727,349.0,6.891,0.012,0.043
33950,24727,349.0,6.885,0.000,0.035
33960,24727,349.0,6.899,0.016,0.035
33970,24727,349.0,6.902,0.004,0.016
33980,24727,349.0,6.945,0.016,0.035
33990,24727,349.0,6.907,0.020,0.035
34000,24727,349.0,6.954,0.004,0.031
34010,24727,349.0,6.843,0.004,0.047
34020,24727,349.0,6.862,0.020,0.043
34030,24727,349.0,6.965,0.008,0.016
34040,24727,349.0,6.929,0.008,0.031
34050,24727,349.0,6.760,0.031,0.047
34060,24727,349.0,6.955,0.004,0.020
34070,24727,349.0,6.848,0.008,0.027
34080,24727,349.0,6.882,0.004,0.043
34090,24727,349.0,6.861,0.016,0.047
34100,24727,349.0,6.971,0.004,0.023
34110,24727,349.0,6.870,0.008,0.027
34120,24727,349.0,6.957,0.020,0.039
34130,24727,349.0,6.925,0.008,0.031
34140,24727,349.0,6.846,0.020,0.055
34150,24727,349.0,6.883,0.012,0.039
34160,24727,349.0,6.922,0.004,0.023
